Item name: Decay

Real time: 1841.9
Live time: 1249

Comment: 


Chan	Data
1	0
2	0
3	0
4	0
5	0
6	0
7	0
8	0
9	0
10	0
11	0
12	0
13	0
14	0
15	0
16	0
17	0
18	0
19	0
20	0
21	0
22	0
23	0
24	0
25	0
26	0
27	0
28	0
29	0
30	0
31	0
32	0
33	0
34	0
35	0
36	0
37	0
38	0
39	0
40	0
41	0
42	0
43	0
44	0
45	0
46	0
47	0
48	0
49	0
50	0
51	0
52	0
53	0
54	0
55	0
56	0
57	0
58	0
59	0
60	0
61	0
62	0
63	0
64	0
65	0
66	0
67	0
68	0
69	0
70	0
71	0
72	0
73	0
74	0
75	0
76	0
77	0
78	0
79	0
80	0
81	0
82	0
83	0
84	0
85	0
86	0
87	0
88	0
89	0
90	0
91	0
92	0
93	0
94	0
95	0
96	0
97	0
98	0
99	0
100	2
101	0
102	2
103	5
104	7
105	17
106	17
107	21
108	34
109	25
110	27
111	28
112	23
113	13
114	25
115	18
116	25
117	15
118	24
119	19
120	15
121	20
122	26
123	26
124	14
125	27
126	23
127	22
128	26
129	17
130	28
131	21
132	21
133	27
134	23
135	21
136	31
137	13
138	25
139	18
140	27
141	26
142	15
143	25
144	24
145	23
146	27
147	29
148	25
149	25
150	26
151	18
152	22
153	24
154	15
155	20
156	34
157	22
158	25
159	22
160	17
161	17
162	20
163	29
164	21
165	23
166	24
167	30
168	23
169	26
170	24
171	16
172	24
173	21
174	18
175	20
176	16
177	23
178	26
179	28
180	20
181	19
182	16
183	35
184	20
185	18
186	21
187	18
188	19
189	19
190	16
191	20
192	15
193	26
194	31
195	27
196	29
197	29
198	27
199	33
200	21
201	35
202	19
203	21
204	24
205	24
206	26
207	17
208	22
209	24
210	31
211	23
212	24
213	31
214	27
215	23
216	22
217	27
218	27
219	13
220	25
221	20
222	22
223	24
224	15
225	24
226	29
227	28
228	22
229	22
230	23
231	25
232	15
233	20
234	20
235	29
236	16
237	20
238	22
239	22
240	29
241	23
242	24
243	24
244	23
245	22
246	32
247	26
248	23
249	18
250	26
251	15
252	28
253	26
254	25
255	26
256	21
257	21
258	34
259	22
260	23
261	25
262	23
263	25
264	24
265	17
266	25
267	18
268	21
269	30
270	18
271	17
272	23
273	24
274	26
275	15
276	17
277	23
278	31
279	22
280	18
281	20
282	23
283	35
284	18
285	21
286	24
287	26
288	19
289	21
290	27
291	24
292	21
293	27
294	26
295	31
296	18
297	27
298	15
299	27
300	20
301	26
302	24
303	27
304	21
305	26
306	21
307	22
308	19
309	24
310	28
311	21
312	16
313	18
314	19
315	28
316	29
317	18
318	22
319	25
320	21
321	27
322	20
323	31
324	27
325	26
326	18
327	21
328	23
329	32
330	21
331	22
332	21
333	30
334	27
335	18
336	21
337	31
338	20
339	20
340	25
341	18
342	18
343	22
344	26
345	15
346	25
347	31
348	31
349	29
350	28
351	14
352	23
353	22
354	25
355	24
356	24
357	16
358	23
359	22
360	17
361	22
362	18
363	20
364	18
365	22
366	15
367	19
368	28
369	21
370	24
371	17
372	22
373	24
374	21
375	25
376	17
377	26
378	17
379	18
380	24
381	32
382	29
383	28
384	18
385	24
386	25
387	17
388	27
389	19
390	9
391	33
392	21
393	31
394	28
395	26
396	27
397	27
398	25
399	25
400	32
401	19
402	15
403	29
404	28
405	22
406	19
407	19
408	28
409	19
410	20
411	23
412	22
413	25
414	28
415	25
416	22
417	27
418	24
419	24
420	16
421	17
422	24
423	18
424	23
425	17
426	26
427	17
428	21
429	18
430	17
431	22
432	22
433	20
434	23
435	24
436	28
437	24
438	24
439	23
440	21
441	29
442	25
443	18
444	27
445	19
446	34
447	15
448	23
449	23
450	21
451	27
452	28
453	23
454	21
455	22
456	23
457	31
458	19
459	25
460	19
461	27
462	17
463	21
464	19
465	20
466	21
467	17
468	17
469	31
470	22
471	24
472	20
473	11
474	18
475	15
476	16
477	26
478	23
479	24
480	25
481	28
482	23
483	25
484	19
485	28
486	22
487	17
488	37
489	39
490	37
491	45
492	44
493	49
494	44
495	64
496	51
497	80
498	93
499	102
500	125
501	128
502	135
503	209
504	241
505	290
506	392
507	473
508	590
509	767
510	1012
511	1342
512	1715
513	2227
514	2925
515	3672
516	5034
517	6558
518	8151
519	10197
520	12953
521	16130
522	19833
523	23885
524	28056
525	32968
526	38436
527	43971
528	49169
529	54543
530	60184
531	65022
532	70286
533	74361
534	78636
535	82747
536	86077
537	88491
538	90372
539	92398
540	94126
541	95218
542	96677
543	96806
544	98324
545	98702
546	99480
547	99120
548	99268
549	99232
550	99175
551	100002
552	99011
553	99566
554	99407
555	98605
556	98566
557	98373
558	98330
559	98544
560	98940
561	98232
562	97812
563	97780
564	96849
565	96744
566	96732
567	96167
568	96405
569	96728
570	95663
571	95115
572	95230
573	94824
574	94557
575	94091
576	93652
577	94264
578	93607
579	93233
580	93187
581	92820
582	92100
583	91537
584	92042
585	91689
586	90745
587	90976
588	90322
589	89908
590	89581
591	89873
592	89293
593	88672
594	89010
595	88353
596	88007
597	87550
598	87549
599	87226
600	87010
601	86356
602	86590
603	87041
604	85815
605	85607
606	85334
607	85619
608	84619
609	84736
610	84702
611	84131
612	83375
613	83070
614	82603
615	82778
616	82778
617	82534
618	82180
619	82362
620	81645
621	81172
622	81439
623	80945
624	81009
625	80533
626	80339
627	79511
628	79683
629	79461
630	79097
631	78736
632	78883
633	79027
634	78342
635	77240
636	77133
637	77332
638	76667
639	76662
640	76214
641	75783
642	76161
643	75664
644	74859
645	74899
646	75040
647	73887
648	74224
649	73909
650	73485
651	73243
652	72794
653	73072
654	72874
655	71920
656	71500
657	71099
658	71377
659	70796
660	70680
661	70864
662	70244
663	70009
664	69832
665	69444
666	69090
667	68776
668	68533
669	68299
670	68576
671	67827
672	67486
673	67310
674	66959
675	66799
676	65836
677	66082
678	66128
679	65280
680	65644
681	64990
682	64881
683	65041
684	64669
685	64261
686	63797
687	63868
688	63764
689	63571
690	62976
691	63031
692	62252
693	63080
694	61645
695	62097
696	62030
697	61414
698	61345
699	61119
700	61207
701	60898
702	60332
703	60357
704	59824
705	59602
706	59839
707	59438
708	59087
709	58913
710	58532
711	58751
712	58401
713	58179
714	57948
715	58232
716	57681
717	57596
718	56537
719	57000
720	56833
721	56560
722	56876
723	56491
724	56467
725	55976
726	55774
727	55570
728	55624
729	55051
730	55456
731	54817
732	54680
733	54599
734	54224
735	53776
736	54140
737	53856
738	53228
739	53835
740	53303
741	52867
742	52795
743	52700
744	52205
745	52341
746	52118
747	52177
748	51426
749	51407
750	51144
751	51120
752	51248
753	50508
754	50459
755	50059
756	50138
757	50684
758	50092
759	49937
760	49465
761	49375
762	49123
763	48891
764	48933
765	48794
766	48352
767	48208
768	48089
769	48115
770	47551
771	47825
772	47139
773	47034
774	47131
775	47117
776	46424
777	46709
778	46263
779	46686
780	46252
781	45512
782	45624
783	45605
784	45472
785	45138
786	45107
787	45105
788	44564
789	44568
790	44888
791	44155
792	44179
793	44058
794	44233
795	43624
796	43570
797	43337
798	43138
799	43083
800	42988
801	42546
802	42589
803	42503
804	42295
805	42530
806	42254
807	41754
808	41755
809	41416
810	41496
811	41457
812	41659
813	40784
814	40928
815	40548
816	40366
817	40590
818	40855
819	40446
820	40140
821	39740
822	40014
823	39758
824	40020
825	39450
826	39455
827	39307
828	39293
829	39280
830	39049
831	38853
832	38829
833	38372
834	37930
835	37964
836	38153
837	38431
838	38011
839	37847
840	37939
841	37822
842	37783
843	37493
844	37467
845	37096
846	36805
847	36763
848	36714
849	36859
850	36229
851	36311
852	36179
853	35903
854	36125
855	35825
856	35481
857	35744
858	35494
859	35369
860	35160
861	35064
862	34680
863	34883
864	34250
865	34705
866	34303
867	34337
868	34556
869	33970
870	33998
871	33709
872	33638
873	33263
874	33774
875	33160
876	33116
877	33355
878	33002
879	33046
880	32613
881	32588
882	32451
883	32516
884	32146
885	31583
886	31889
887	31611
888	31462
889	31786
890	31234
891	31268
892	31244
893	31251
894	30977
895	30766
896	30563
897	30680
898	30523
899	30725
900	30365
901	30346
902	30158
903	30134
904	29916
905	30194
906	29889
907	30010
908	29620
909	29208
910	29307
911	29217
912	29127
913	28729
914	28709
915	28881
916	28736
917	28786
918	28352
919	28418
920	28279
921	28373
922	27971
923	28280
924	28078
925	27587
926	27904
927	27694
928	27528
929	27664
930	27316
931	27349
932	27403
933	27205
934	26923
935	27086
936	26866
937	27120
938	26411
939	26688
940	26436
941	26516
942	26112
943	26547
944	26452
945	26078
946	25989
947	25924
948	25917
949	25684
950	25960
951	25918
952	25777
953	25509
954	25210
955	25488
956	25002
957	25132
958	25040
959	25020
960	25066
961	24765
962	24800
963	24831
964	24697
965	24436
966	24633
967	24424
968	24403
969	24270
970	23815
971	24181
972	24381
973	23810
974	23995
975	24021
976	23677
977	23589
978	23477
979	23414
980	23219
981	23174
982	22955
983	23419
984	23082
985	23054
986	22642
987	22621
988	22589
989	22410
990	22553
991	22164
992	22347
993	22051
994	22136
995	21869
996	22148
997	21705
998	21554
999	21485
1000	21540
1001	21427
1002	21450
1003	21271
1004	21307
1005	21279
1006	20946
1007	20738
1008	20788
1009	20934
1010	20738
1011	20637
1012	20609
1013	20535
1014	20610
1015	20468
1016	20262
1017	20207
1018	20031
1019	20022
1020	20088
1021	19694
1022	20023
1023	19805
1024	19427
1025	19351
1026	19587
1027	19398
1028	19442
1029	19369
1030	19216
1031	19404
1032	19211
1033	19135
1034	19157
1035	19009
1036	18712
1037	18497
1038	18668
1039	18618
1040	18804
1041	18613
1042	18611
1043	18438
1044	18537
1045	18371
1046	18270
1047	18259
1048	17988
1049	18089
1050	18162
1051	17816
1052	17961
1053	17997
1054	17717
1055	17906
1056	17500
1057	17718
1058	17608
1059	17508
1060	17566
1061	17563
1062	17182
1063	17187
1064	17187
1065	17163
1066	17190
1067	17139
1068	17038
1069	17071
1070	16953
1071	16894
1072	16675
1073	16814
1074	16872
1075	16528
1076	16493
1077	16754
1078	16483
1079	16484
1080	16321
1081	16315
1082	16302
1083	16075
1084	15958
1085	16164
1086	16089
1087	16062
1088	15681
1089	15770
1090	15561
1091	15547
1092	15912
1093	15760
1094	15665
1095	15539
1096	15637
1097	15583
1098	15280
1099	15278
1100	15375
1101	15010
1102	15325
1103	15063
1104	15121
1105	14828
1106	14930
1107	14969
1108	14764
1109	14783
1110	14582
1111	14741
1112	14507
1113	14456
1114	14401
1115	14424
1116	14501
1117	14377
1118	14219
1119	14228
1120	14232
1121	14248
1122	14057
1123	14264
1124	13890
1125	13878
1126	13961
1127	13759
1128	13717
1129	13895
1130	13626
1131	13727
1132	13699
1133	13589
1134	13360
1135	13584
1136	13441
1137	13524
1138	13391
1139	13041
1140	13126
1141	13107
1142	13218
1143	12976
1144	13056
1145	13036
1146	13048
1147	12909
1148	12925
1149	12880
1150	12780
1151	12628
1152	12595
1153	12607
1154	12632
1155	12803
1156	12720
1157	12474
1158	12629
1159	12493
1160	12495
1161	12260
1162	12213
1163	12096
1164	12182
1165	12147
1166	12393
1167	12158
1168	12117
1169	12192
1170	12048
1171	11989
1172	12017
1173	12100
1174	11767
1175	11805
1176	11673
1177	11809
1178	11743
1179	11584
1180	11709
1181	11888
1182	11444
1183	11490
1184	11501
1185	11630
1186	11193
1187	11293
1188	11319
1189	11260
1190	11114
1191	11358
1192	11224
1193	11288
1194	11120
1195	10994
1196	11032
1197	10921
1198	11042
1199	10832
1200	11151
1201	11017
1202	10794
1203	10625
1204	10811
1205	10690
1206	10446
1207	10478
1208	10534
1209	10569
1210	10453
1211	10424
1212	10328
1213	10463
1214	10430
1215	10175
1216	10225
1217	10294
1218	10339
1219	10392
1220	10157
1221	10319
1222	9970
1223	10217
1224	9904
1225	9870
1226	9816
1227	9945
1228	9878
1229	9869
1230	9779
1231	9790
1232	9771
1233	9793
1234	9622
1235	9760
1236	9572
1237	9586
1238	9743
1239	9598
1240	9517
1241	9451
1242	9364
1243	9334
1244	9303
1245	9346
1246	9195
1247	9241
1248	9142
1249	9032
1250	9082
1251	8964
1252	8996
1253	9050
1254	9026
1255	8972
1256	9121
1257	8813
1258	9035
1259	8926
1260	8937
1261	8983
1262	8901
1263	8881
1264	8846
1265	8826
1266	8715
1267	8673
1268	8684
1269	8766
1270	8542
1271	8432
1272	8542
1273	8502
1274	8329
1275	8314
1276	8432
1277	8417
1278	8216
1279	8465
1280	8198
1281	8240
1282	8133
1283	8237
1284	7941
1285	8173
1286	8238
1287	8023
1288	8128
1289	8251
1290	8073
1291	8101
1292	8112
1293	8055
1294	7956
1295	7940
1296	7883
1297	8014
1298	7896
1299	7953
1300	7928
1301	7709
1302	7767
1303	7789
1304	7749
1305	7709
1306	7683
1307	7778
1308	7652
1309	7511
1310	7623
1311	7615
1312	7532
1313	7607
1314	7587
1315	7492
1316	7352
1317	7497
1318	7513
1319	7304
1320	7436
1321	7299
1322	7236
1323	7192
1324	7179
1325	7243
1326	7092
1327	7179
1328	6966
1329	6899
1330	6952
1331	6854
1332	7036
1333	6896
1334	6958
1335	6926
1336	6946
1337	6941
1338	6694
1339	6753
1340	6744
1341	6774
1342	6765
1343	6672
1344	6728
1345	6650
1346	6711
1347	6528
1348	6643
1349	6475
1350	6520
1351	6539
1352	6463
1353	6254
1354	6424
1355	6415
1356	6270
1357	6293
1358	6349
1359	6404
1360	6289
1361	6327
1362	6136
1363	6283
1364	6270
1365	6237
1366	6128
1367	6099
1368	6109
1369	6069
1370	6197
1371	6066
1372	6179
1373	6055
1374	6042
1375	5953
1376	5977
1377	6010
1378	5951
1379	5966
1380	5949
1381	5881
1382	5782
1383	5867
1384	5904
1385	5960
1386	5900
1387	5841
1388	5859
1389	5716
1390	5705
1391	5656
1392	5689
1393	5567
1394	5579
1395	5643
1396	5744
1397	5596
1398	5581
1399	5684
1400	5443
1401	5602
1402	5352
1403	5572
1404	5422
1405	5347
1406	5413
1407	5371
1408	5310
1409	5418
1410	5224
1411	5303
1412	5265
1413	5313
1414	5266
1415	5343
1416	5167
1417	5280
1418	5207
1419	5065
1420	5192
1421	5244
1422	5113
1423	5116
1424	5084
1425	5126
1426	4800
1427	4958
1428	5060
1429	5012
1430	5031
1431	5007
1432	4908
1433	4959
1434	4943
1435	4955
1436	4888
1437	4909
1438	4801
1439	4819
1440	4713
1441	4748
1442	4727
1443	4792
1444	4779
1445	4850
1446	4745
1447	4761
1448	4742
1449	4543
1450	4644
1451	4606
1452	4600
1453	4570
1454	4623
1455	4559
1456	4554
1457	4475
1458	4553
1459	4548
1460	4438
1461	4543
1462	4527
1463	4476
1464	4480
1465	4333
1466	4486
1467	4244
1468	4287
1469	4289
1470	4391
1471	4283
1472	4291
1473	4268
1474	4375
1475	4140
1476	4195
1477	4328
1478	4272
1479	4296
1480	4121
1481	4300
1482	4098
1483	4073
1484	4049
1485	4075
1486	4197
1487	3995
1488	4036
1489	4115
1490	4083
1491	4035
1492	4110
1493	3958
1494	4068
1495	4051
1496	4049
1497	4069
1498	3906
1499	3862
1500	3973
1501	3864
1502	3828
1503	3966
1504	3846
1505	3961
1506	3806
1507	3860
1508	3877
1509	3819
1510	3909
1511	3740
1512	3671
1513	3695
1514	3678
1515	3784
1516	3729
1517	3747
1518	3755
1519	3751
1520	3700
1521	3700
1522	3647
1523	3731
1524	3617
1525	3519
1526	3565
1527	3632
1528	3614
1529	3678
1530	3575
1531	3564
1532	3542
1533	3612
1534	3574
1535	3467
1536	3470
1537	3455
1538	3529
1539	3438
1540	3388
1541	3463
1542	3472
1543	3430
1544	3338
1545	3338
1546	3416
1547	3354
1548	3325
1549	3373
1550	3260
1551	3390
1552	3318
1553	3393
1554	3354
1555	3313
1556	3203
1557	3175
1558	3269
1559	3273
1560	3220
1561	3264
1562	3193
1563	3127
1564	3119
1565	3105
1566	3037
1567	3105
1568	3078
1569	3076
1570	3024
1571	3105
1572	3055
1573	3055
1574	3092
1575	3078
1576	3021
1577	3027
1578	3031
1579	3056
1580	2917
1581	2974
1582	3003
1583	2952
1584	2947
1585	2919
1586	2917
1587	2964
1588	2937
1589	2988
1590	2901
1591	2792
1592	2897
1593	2899
1594	2865
1595	2943
1596	2911
1597	2863
1598	2737
1599	2815
1600	2856
1601	2810
1602	2768
1603	2790
1604	2784
1605	2723
1606	2770
1607	2825
1608	2745
1609	2754
1610	2781
1611	2824
1612	2687
1613	2765
1614	2610
1615	2716
1616	2692
1617	2704
1618	2783
1619	2649
1620	2564
1621	2618
1622	2665
1623	2550
1624	2537
1625	2573
1626	2644
1627	2582
1628	2585
1629	2470
1630	2623
1631	2553
1632	2652
1633	2528
1634	2569
1635	2566
1636	2548
1637	2491
1638	2502
1639	2540
1640	2496
1641	2425
1642	2396
1643	2546
1644	2515
1645	2459
1646	2404
1647	2422
1648	2418
1649	2454
1650	2392
1651	2437
1652	2511
1653	2437
1654	2370
1655	2367
1656	2450
1657	2365
1658	2427
1659	2318
1660	2274
1661	2301
1662	2316
1663	2294
1664	2291
1665	2252
1666	2265
1667	2296
1668	2276
1669	2235
1670	2219
1671	2243
1672	2270
1673	2217
1674	2177
1675	2210
1676	2187
1677	2202
1678	2131
1679	2172
1680	2211
1681	2205
1682	2170
1683	2168
1684	2163
1685	2139
1686	2205
1687	2069
1688	1979
1689	2066
1690	2126
1691	2249
1692	2073
1693	2119
1694	2066
1695	2105
1696	2073
1697	2040
1698	2057
1699	1992
1700	1988
1701	2019
1702	1981
1703	2006
1704	2035
1705	2100
1706	1931
1707	2013
1708	1939
1709	1970
1710	1858
1711	1940
1712	1946
1713	1990
1714	1977
1715	1891
1716	1895
1717	1905
1718	1901
1719	1913
1720	1904
1721	1873
1722	1972
1723	1922
1724	1862
1725	1934
1726	1867
1727	1934
1728	1796
1729	1865
1730	1776
1731	1889
1732	1805
1733	1762
1734	1763
1735	1810
1736	1826
1737	1781
1738	1762
1739	1712
1740	1811
1741	1783
1742	1768
1743	1752
1744	1773
1745	1766
1746	1812
1747	1769
1748	1685
1749	1774
1750	1765
1751	1707
1752	1751
1753	1726
1754	1655
1755	1725
1756	1692
1757	1615
1758	1766
1759	1647
1760	1652
1761	1583
1762	1703
1763	1633
1764	1612
1765	1583
1766	1634
1767	1640
1768	1581
1769	1533
1770	1574
1771	1652
1772	1578
1773	1586
1774	1636
1775	1564
1776	1565
1777	1508
1778	1531
1779	1506
1780	1552
1781	1525
1782	1490
1783	1521
1784	1550
1785	1548
1786	1492
1787	1531
1788	1489
1789	1508
1790	1528
1791	1421
1792	1508
1793	1494
1794	1549
1795	1493
1796	1499
1797	1498
1798	1500
1799	1498
1800	1414
1801	1451
1802	1500
1803	1399
1804	1467
1805	1444
1806	1388
1807	1424
1808	1347
1809	1446
1810	1394
1811	1380
1812	1387
1813	1428
1814	1392
1815	1432
1816	1308
1817	1415
1818	1370
1819	1364
1820	1366
1821	1420
1822	1292
1823	1398
1824	1384
1825	1357
1826	1387
1827	1379
1828	1327
1829	1280
1830	1319
1831	1335
1832	1350
1833	1310
1834	1365
1835	1235
1836	1297
1837	1287
1838	1244
1839	1397
1840	1318
1841	1273
1842	1287
1843	1307
1844	1287
1845	1260
1846	1217
1847	1303
1848	1281
1849	1215
1850	1221
1851	1213
1852	1256
1853	1215
1854	1164
1855	1188
1856	1224
1857	1229
1858	1243
1859	1223
1860	1180
1861	1198
1862	1216
1863	1123
1864	1223
1865	1167
1866	1246
1867	1137
1868	1159
1869	1175
1870	1149
1871	1154
1872	1105
1873	1178
1874	1100
1875	1104
1876	1126
1877	1114
1878	1136
1879	1071
1880	1093
1881	1089
1882	1124
1883	1096
1884	1075
1885	1105
1886	1123
1887	1132
1888	1095
1889	1082
1890	1095
1891	1047
1892	1123
1893	1064
1894	1040
1895	976
1896	1102
1897	1022
1898	1049
1899	1086
1900	1072
1901	1016
1902	1055
1903	1021
1904	1063
1905	1033
1906	1030
1907	1020
1908	1004
1909	1095
1910	986
1911	1052
1912	997
1913	1027
1914	1026
1915	971
1916	1020
1917	970
1918	964
1919	912
1920	950
1921	978
1922	1022
1923	964
1924	971
1925	989
1926	942
1927	951
1928	1043
1929	941
1930	888
1931	982
1932	919
1933	964
1934	959
1935	936
1936	936
1937	895
1938	914
1939	969
1940	982
1941	971
1942	914
1943	966
1944	933
1945	970
1946	858
1947	909
1948	881
1949	865
1950	941
1951	888
1952	883
1953	859
1954	890
1955	887
1956	901
1957	907
1958	872
1959	855
1960	897
1961	827
1962	893
1963	860
1964	839
1965	894
1966	899
1967	908
1968	837
1969	826
1970	858
1971	846
1972	838
1973	832
1974	822
1975	880
1976	817
1977	831
1978	877
1979	824
1980	823
1981	829
1982	792
1983	834
1984	757
1985	783
1986	788
1987	799
1988	783
1989	792
1990	831
1991	760
1992	813
1993	766
1994	818
1995	783
1996	773
1997	769
1998	777
1999	742
2000	791
2001	764
2002	776
2003	753
2004	773
2005	769
2006	735
2007	721
2008	695
2009	761
2010	740
2011	759
2012	726
2013	724
2014	726
2015	752
2016	722
2017	720
2018	756
2019	745
2020	699
2021	750
2022	713
2023	694
2024	700
2025	687
2026	717
2027	676
2028	706
2029	650
2030	732
2031	664
2032	693
2033	689
2034	738
2035	652
2036	626
2037	641
2038	637
2039	670
2040	693
2041	673
2042	659
2043	670
2044	642
2045	670
2046	615
2047	679
2048	664
2049	660
2050	690
2051	618
2052	638
2053	672
2054	654
2055	634
2056	581
2057	655
2058	638
2059	639
2060	626
2061	592
2062	641
2063	631
2064	637
2065	647
2066	642
2067	603
2068	599
2069	664
2070	569
2071	607
2072	582
2073	645
2074	608
2075	581
2076	575
2077	627
2078	587
2079	556
2080	587
2081	629
2082	617
2083	606
2084	649
2085	612
2086	591
2087	595
2088	585
2089	575
2090	567
2091	616
2092	596
2093	589
2094	591
2095	579
2096	549
2097	576
2098	582
2099	569
2100	539
2101	556
2102	577
2103	582
2104	599
2105	590
2106	511
2107	568
2108	556
2109	557
2110	528
2111	566
2112	555
2113	543
2114	585
2115	577
2116	549
2117	536
2118	539
2119	577
2120	569
2121	559
2122	618
2123	558
2124	538
2125	585
2126	567
2127	519
2128	523
2129	606
2130	563
2131	516
2132	553
2133	512
2134	559
2135	549
2136	550
2137	540
2138	571
2139	561
2140	543
2141	524
2142	585
2143	531
2144	555
2145	528
2146	534
2147	570
2148	550
2149	572
2150	591
2151	562
2152	566
2153	578
2154	597
2155	540
2156	585
2157	575
2158	546
2159	557
2160	588
2161	536
2162	562
2163	567
2164	532
2165	548
2166	568
2167	553
2168	553
2169	563
2170	560
2171	563
2172	536
2173	510
2174	608
2175	503
2176	532
2177	564
2178	552
2179	568
2180	596
2181	585
2182	522
2183	558
2184	575
2185	534
2186	501
2187	538
2188	498
2189	563
2190	521
2191	506
2192	557
2193	494
2194	543
2195	529
2196	539
2197	542
2198	528
2199	520
2200	554
2201	556
2202	536
2203	523
2204	525
2205	542
2206	555
2207	479
2208	534
2209	514
2210	545
2211	526
2212	526
2213	530
2214	518
2215	495
2216	495
2217	554
2218	468
2219	489
2220	520
2221	498
2222	498
2223	505
2224	517
2225	504
2226	503
2227	510
2228	497
2229	516
2230	527
2231	464
2232	487
2233	502
2234	490
2235	500
2236	498
2237	534
2238	524
2239	506
2240	476
2241	504
2242	491
2243	497
2244	497
2245	496
2246	474
2247	486
2248	486
2249	517
2250	536
2251	466
2252	479
2253	447
2254	483
2255	448
2256	444
2257	487
2258	459
2259	448
2260	472
2261	498
2262	502
2263	469
2264	485
2265	445
2266	469
2267	472
2268	490
2269	451
2270	448
2271	506
2272	463
2273	501
2274	496
2275	472
2276	483
2277	468
2278	492
2279	473
2280	469
2281	481
2282	490
2283	445
2284	493
2285	460
2286	461
2287	453
2288	425
2289	488
2290	448
2291	422
2292	456
2293	466
2294	470
2295	440
2296	436
2297	419
2298	502
2299	448
2300	447
2301	454
2302	447
2303	464
2304	432
2305	427
2306	392
2307	419
2308	417
2309	449
2310	432
2311	445
2312	439
2313	454
2314	431
2315	419
2316	404
2317	405
2318	428
2319	414
2320	443
2321	419
2322	432
2323	398
2324	430
2325	431
2326	384
2327	455
2328	434
2329	404
2330	354
2331	413
2332	470
2333	392
2334	410
2335	393
2336	401
2337	417
2338	394
2339	432
2340	388
2341	395
2342	377
2343	367
2344	396
2345	414
2346	410
2347	433
2348	406
2349	402
2350	387
2351	366
2352	413
2353	373
2354	389
2355	404
2356	402
2357	405
2358	365
2359	358
2360	353
2361	395
2362	393
2363	350
2364	406
2365	379
2366	342
2367	369
2368	382
2369	375
2370	371
2371	380
2372	374
2373	386
2374	371
2375	361
2376	388
2377	395
2378	410
2379	376
2380	367
2381	380
2382	412
2383	382
2384	388
2385	378
2386	346
2387	386
2388	355
2389	398
2390	367
2391	408
2392	384
2393	344
2394	401
2395	378
2396	357
2397	374
2398	346
2399	350
2400	362
2401	379
2402	367
2403	327
2404	378
2405	356
2406	345
2407	365
2408	366
2409	320
2410	314
2411	345
2412	320
2413	372
2414	331
2415	353
2416	338
2417	340
2418	350
2419	331
2420	332
2421	347
2422	353
2423	355
2424	327
2425	365
2426	332
2427	349
2428	344
2429	327
2430	336
2431	327
2432	328
2433	355
2434	338
2435	328
2436	333
2437	293
2438	308
2439	341
2440	313
2441	321
2442	315
2443	314
2444	298
2445	324
2446	322
2447	324
2448	336
2449	362
2450	347
2451	329
2452	321
2453	302
2454	291
2455	315
2456	334
2457	308
2458	305
2459	343
2460	347
2461	313
2462	301
2463	276
2464	323
2465	308
2466	317
2467	300
2468	322
2469	288
2470	318
2471	295
2472	300
2473	338
2474	318
2475	334
2476	285
2477	295
2478	283
2479	305
2480	304
2481	320
2482	316
2483	299
2484	279
2485	340
2486	296
2487	286
2488	318
2489	329
2490	323
2491	289
2492	312
2493	311
2494	298
2495	278
2496	295
2497	322
2498	276
2499	286
2500	284
2501	290
2502	268
2503	306
2504	288
2505	256
2506	303
2507	321
2508	284
2509	273
2510	318
2511	258
2512	279
2513	271
2514	293
2515	276
2516	275
2517	275
2518	316
2519	277
2520	283
2521	283
2522	265
2523	283
2524	271
2525	266
2526	277
2527	272
2528	276
2529	266
2530	256
2531	265
2532	280
2533	251
2534	278
2535	270
2536	295
2537	245
2538	283
2539	287
2540	263
2541	266
2542	261
2543	288
2544	280
2545	264
2546	276
2547	257
2548	239
2549	267
2550	274
2551	282
2552	274
2553	258
2554	268
2555	258
2556	261
2557	263
2558	292
2559	301
2560	276
2561	236
2562	255
2563	259
2564	277
2565	283
2566	255
2567	243
2568	257
2569	292
2570	266
2571	281
2572	279
2573	259
2574	271
2575	256
2576	247
2577	255
2578	234
2579	282
2580	270
2581	249
2582	256
2583	254
2584	278
2585	236
2586	260
2587	239
2588	260
2589	253
2590	246
2591	266
2592	265
2593	279
2594	231
2595	270
2596	239
2597	259
2598	237
2599	251
2600	241
2601	230
2602	262
2603	250
2604	256
2605	238
2606	269
2607	212
2608	224
2609	249
2610	255
2611	247
2612	254
2613	223
2614	240
2615	252
2616	218
2617	222
2618	275
2619	270
2620	229
2621	240
2622	214
2623	251
2624	217
2625	246
2626	248
2627	234
2628	252
2629	229
2630	237
2631	224
2632	235
2633	244
2634	263
2635	230
2636	253
2637	247
2638	253
2639	266
2640	260
2641	220
2642	208
2643	225
2644	219
2645	232
2646	253
2647	240
2648	223
2649	237
2650	262
2651	240
2652	237
2653	249
2654	224
2655	225
2656	224
2657	264
2658	229
2659	249
2660	226
2661	263
2662	227
2663	203
2664	232
2665	249
2666	215
2667	214
2668	229
2669	211
2670	223
2671	201
2672	238
2673	210
2674	230
2675	222
2676	231
2677	196
2678	230
2679	216
2680	223
2681	210
2682	236
2683	226
2684	196
2685	193
2686	190
2687	239
2688	227
2689	223
2690	206
2691	214
2692	218
2693	229
2694	215
2695	196
2696	189
2697	195
2698	186
2699	209
2700	201
2701	230
2702	207
2703	214
2704	224
2705	222
2706	206
2707	207
2708	215
2709	187
2710	187
2711	209
2712	178
2713	204
2714	205
2715	205
2716	222
2717	176
2718	204
2719	204
2720	198
2721	203
2722	228
2723	189
2724	170
2725	198
2726	205
2727	157
2728	189
2729	187
2730	200
2731	191
2732	190
2733	180
2734	189
2735	201
2736	181
2737	157
2738	181
2739	189
2740	213
2741	198
2742	179
2743	203
2744	196
2745	169
2746	170
2747	190
2748	191
2749	190
2750	162
2751	208
2752	183
2753	175
2754	182
2755	174
2756	176
2757	185
2758	181
2759	197
2760	194
2761	192
2762	183
2763	165
2764	171
2765	187
2766	175
2767	194
2768	192
2769	193
2770	195
2771	211
2772	182
2773	191
2774	177
2775	166
2776	185
2777	193
2778	185
2779	203
2780	159
2781	173
2782	173
2783	166
2784	192
2785	180
2786	163
2787	166
2788	152
2789	189
2790	189
2791	161
2792	185
2793	149
2794	178
2795	181
2796	170
2797	187
2798	201
2799	162
2800	178
2801	178
2802	184
2803	165
2804	195
2805	191
2806	168
2807	187
2808	188
2809	162
2810	168
2811	166
2812	145
2813	177
2814	158
2815	187
2816	178
2817	165
2818	180
2819	153
2820	160
2821	173
2822	162
2823	170
2824	162
2825	146
2826	158
2827	187
2828	172
2829	177
2830	172
2831	172
2832	147
2833	205
2834	163
2835	159
2836	146
2837	164
2838	148
2839	172
2840	141
2841	163
2842	153
2843	156
2844	162
2845	166
2846	159
2847	180
2848	157
2849	169
2850	148
2851	140
2852	164
2853	150
2854	142
2855	138
2856	171
2857	161
2858	160
2859	141
2860	133
2861	161
2862	143
2863	123
2864	141
2865	151
2866	148
2867	147
2868	168
2869	169
2870	156
2871	129
2872	162
2873	145
2874	147
2875	150
2876	137
2877	142
2878	147
2879	154
2880	142
2881	139
2882	155
2883	123
2884	154
2885	172
2886	132
2887	139
2888	167
2889	144
2890	141
2891	130
2892	148
2893	147
2894	133
2895	130
2896	148
2897	130
2898	138
2899	157
2900	163
2901	141
2902	117
2903	129
2904	160
2905	140
2906	150
2907	122
2908	157
2909	170
2910	139
2911	149
2912	121
2913	127
2914	144
2915	172
2916	148
2917	140
2918	126
2919	153
2920	132
2921	101
2922	138
2923	130
2924	129
2925	114
2926	128
2927	145
2928	111
2929	136
2930	127
2931	135
2932	130
2933	134
2934	120
2935	135
2936	133
2937	119
2938	123
2939	133
2940	126
2941	127
2942	132
2943	132
2944	136
2945	137
2946	125
2947	139
2948	132
2949	128
2950	125
2951	159
2952	115
2953	131
2954	122
2955	130
2956	118
2957	113
2958	120
2959	121
2960	101
2961	112
2962	121
2963	139
2964	108
2965	120
2966	116
2967	110
2968	121
2969	127
2970	112
2971	117
2972	111
2973	101
2974	98
2975	132
2976	112
2977	124
2978	138
2979	109
2980	94
2981	126
2982	115
2983	122
2984	107
2985	107
2986	118
2987	117
2988	132
2989	123
2990	118
2991	108
2992	123
2993	117
2994	103
2995	100
2996	127
2997	125
2998	141
2999	101
3000	111
3001	116
3002	117
3003	124
3004	106
3005	128
3006	107
3007	109
3008	92
3009	127
3010	120
3011	111
3012	118
3013	122
3014	127
3015	99
3016	107
3017	115
3018	102
3019	113
3020	97
3021	121
3022	106
3023	99
3024	116
3025	128
3026	127
3027	125
3028	134
3029	106
3030	117
3031	98
3032	125
3033	110
3034	125
3035	104
3036	120
3037	80
3038	100
3039	100
3040	90
3041	108
3042	97
3043	97
3044	91
3045	123
3046	107
3047	92
3048	94
3049	114
3050	109
3051	117
3052	110
3053	89
3054	82
3055	76
3056	97
3057	96
3058	104
3059	96
3060	113
3061	104
3062	99
3063	105
3064	99
3065	103
3066	96
3067	98
3068	103
3069	92
3070	95
3071	89
3072	102
3073	109
3074	91
3075	94
3076	94
3077	88
3078	89
3079	101
3080	81
3081	91
3082	92
3083	87
3084	83
3085	85
3086	101
3087	94
3088	83
3089	83
3090	95
3091	113
3092	81
3093	95
3094	87
3095	105
3096	78
3097	102
3098	88
3099	99
3100	76
3101	103
3102	103
3103	89
3104	71
3105	94
3106	85
3107	106
3108	103
3109	97
3110	83
3111	91
3112	97
3113	93
3114	116
3115	80
3116	83
3117	82
3118	78
3119	87
3120	99
3121	97
3122	85
3123	95
3124	80
3125	87
3126	74
3127	99
3128	88
3129	90
3130	81
3131	91
3132	94
3133	94
3134	93
3135	93
3136	90
3137	73
3138	91
3139	80
3140	83
3141	82
3142	72
3143	98
3144	92
3145	74
3146	96
3147	81
3148	72
3149	86
3150	96
3151	81
3152	87
3153	81
3154	87
3155	73
3156	93
3157	93
3158	79
3159	94
3160	68
3161	87
3162	80
3163	75
3164	83
3165	86
3166	69
3167	82
3168	84
3169	92
3170	69
3171	76
3172	86
3173	79
3174	84
3175	94
3176	66
3177	70
3178	66
3179	79
3180	84
3181	69
3182	78
3183	73
3184	82
3185	80
3186	69
3187	79
3188	80
3189	69
3190	86
3191	86
3192	84
3193	79
3194	78
3195	74
3196	70
3197	84
3198	65
3199	95
3200	84
3201	72
3202	73
3203	75
3204	69
3205	83
3206	82
3207	71
3208	78
3209	56
3210	61
3211	74
3212	73
3213	59
3214	71
3215	82
3216	79
3217	66
3218	69
3219	77
3220	78
3221	69
3222	86
3223	79
3224	65
3225	102
3226	79
3227	65
3228	67
3229	72
3230	72
3231	81
3232	81
3233	61
3234	75
3235	79
3236	80
3237	74
3238	64
3239	81
3240	69
3241	79
3242	67
3243	69
3244	75
3245	80
3246	71
3247	75
3248	78
3249	84
3250	59
3251	65
3252	76
3253	79
3254	73
3255	60
3256	57
3257	66
3258	72
3259	61
3260	69
3261	63
3262	76
3263	74
3264	59
3265	81
3266	68
3267	68
3268	63
3269	78
3270	72
3271	66
3272	66
3273	68
3274	65
3275	54
3276	67
3277	83
3278	60
3279	69
3280	83
3281	61
3282	57
3283	55
3284	60
3285	61
3286	49
3287	73
3288	69
3289	69
3290	74
3291	65
3292	70
3293	63
3294	72
3295	61
3296	68
3297	72
3298	78
3299	69
3300	70
3301	65
3302	74
3303	66
3304	68
3305	60
3306	58
3307	76
3308	54
