Item name: Decay_8

Real time: 3193.26
Live time: 2930.66

Comment: 


Chan	Data
1	0
2	0
3	0
4	0
5	0
6	0
7	0
8	0
9	0
10	0
11	0
12	0
13	0
14	0
15	0
16	0
17	0
18	0
19	0
20	0
21	0
22	0
23	0
24	0
25	0
26	0
27	0
28	0
29	0
30	0
31	0
32	0
33	0
34	0
35	0
36	0
37	0
38	0
39	0
40	0
41	0
42	0
43	0
44	0
45	0
46	0
47	0
48	0
49	0
50	0
51	0
52	0
53	0
54	0
55	0
56	0
57	0
58	0
59	0
60	0
61	0
62	0
63	0
64	0
65	0
66	0
67	0
68	0
69	0
70	0
71	0
72	0
73	0
74	0
75	0
76	0
77	0
78	0
79	0
80	0
81	0
82	0
83	0
84	0
85	0
86	0
87	0
88	0
89	0
90	0
91	0
92	0
93	0
94	0
95	0
96	0
97	0
98	0
99	0
100	1
101	0
102	1
103	3
104	5
105	5
106	15
107	17
108	17
109	8
110	9
111	21
112	13
113	16
114	18
115	14
116	20
117	10
118	16
119	15
120	16
121	16
122	16
123	19
124	15
125	16
126	20
127	21
128	17
129	13
130	15
131	11
132	21
133	19
134	18
135	16
136	16
137	20
138	16
139	20
140	12
141	15
142	13
143	15
144	18
145	15
146	14
147	20
148	13
149	10
150	18
151	19
152	16
153	9
154	24
155	11
156	16
157	10
158	13
159	17
160	12
161	13
162	24
163	12
164	16
165	23
166	13
167	13
168	16
169	21
170	16
171	16
172	18
173	22
174	16
175	12
176	13
177	23
178	15
179	23
180	22
181	21
182	17
183	18
184	10
185	14
186	18
187	10
188	9
189	15
190	16
191	14
192	18
193	13
194	21
195	17
196	9
197	15
198	13
199	16
200	21
201	24
202	11
203	18
204	11
205	18
206	11
207	14
208	13
209	11
210	22
211	13
212	14
213	16
214	16
215	11
216	16
217	15
218	18
219	14
220	22
221	13
222	21
223	12
224	19
225	20
226	19
227	20
228	23
229	19
230	16
231	9
232	13
233	22
234	13
235	25
236	18
237	25
238	25
239	16
240	15
241	20
242	22
243	20
244	12
245	22
246	15
247	21
248	16
249	19
250	15
251	17
252	17
253	12
254	15
255	15
256	13
257	13
258	23
259	19
260	14
261	15
262	22
263	22
264	18
265	19
266	25
267	11
268	13
269	19
270	24
271	13
272	16
273	14
274	7
275	19
276	14
277	21
278	18
279	15
280	17
281	14
282	13
283	12
284	13
285	9
286	9
287	17
288	17
289	10
290	13
291	23
292	18
293	17
294	17
295	18
296	15
297	8
298	20
299	15
300	14
301	12
302	17
303	17
304	33
305	14
306	16
307	26
308	16
309	25
310	14
311	20
312	16
313	14
314	14
315	11
316	19
317	22
318	21
319	23
320	9
321	14
322	13
323	21
324	11
325	15
326	19
327	23
328	17
329	15
330	14
331	14
332	19
333	12
334	20
335	9
336	6
337	18
338	20
339	16
340	20
341	15
342	22
343	13
344	20
345	19
346	15
347	20
348	17
349	24
350	15
351	16
352	14
353	15
354	12
355	16
356	15
357	12
358	18
359	9
360	14
361	13
362	14
363	20
364	25
365	10
366	16
367	13
368	16
369	16
370	17
371	12
372	13
373	18
374	21
375	20
376	16
377	19
378	22
379	16
380	11
381	16
382	14
383	10
384	19
385	15
386	20
387	20
388	13
389	22
390	18
391	16
392	22
393	16
394	20
395	15
396	20
397	14
398	20
399	16
400	12
401	14
402	14
403	16
404	11
405	24
406	17
407	21
408	12
409	24
410	19
411	24
412	18
413	18
414	9
415	17
416	13
417	11
418	26
419	17
420	18
421	19
422	14
423	22
424	12
425	15
426	15
427	19
428	12
429	14
430	18
431	18
432	23
433	23
434	13
435	20
436	13
437	11
438	17
439	13
440	17
441	15
442	14
443	12
444	16
445	15
446	19
447	12
448	18
449	17
450	19
451	20
452	12
453	18
454	24
455	11
456	18
457	18
458	9
459	14
460	13
461	15
462	22
463	14
464	21
465	12
466	19
467	17
468	21
469	20
470	21
471	18
472	14
473	22
474	21
475	14
476	11
477	23
478	20
479	21
480	17
481	24
482	22
483	18
484	34
485	29
486	23
487	20
488	29
489	32
490	22
491	45
492	45
493	47
494	43
495	55
496	61
497	97
498	94
499	132
500	128
501	168
502	208
503	236
504	325
505	441
506	499
507	576
508	798
509	1055
510	1363
511	1756
512	2368
513	3121
514	4115
515	5298
516	6732
517	8829
518	11313
519	14121
520	17534
521	21718
522	26363
523	31396
524	36861
525	42959
526	49489
527	55453
528	61833
529	68310
530	74082
531	79170
532	83439
533	87754
534	91235
535	93898
536	96056
537	98002
538	98612
539	100001
540	99586
541	99847
542	99412
543	98399
544	98552
545	97580
546	96695
547	95467
548	94957
549	93224
550	92826
551	92026
552	90847
553	89968
554	89268
555	88046
556	87177
557	86929
558	85414
559	85091
560	83927
561	82908
562	82645
563	82132
564	80788
565	80215
566	79712
567	78642
568	78045
569	77649
570	76914
571	76527
572	75445
573	74744
574	74316
575	73809
576	73147
577	72257
578	71947
579	71764
580	70413
581	70500
582	69985
583	69219
584	68712
585	68328
586	68050
587	67538
588	66567
589	66396
590	65539
591	65671
592	65393
593	64658
594	64403
595	63459
596	63438
597	62844
598	62876
599	62332
600	61880
601	61790
602	61142
603	60832
604	60233
605	60200
606	59942
607	59479
608	59185
609	58820
610	58333
611	58576
612	57697
613	57630
614	56789
615	56874
616	56588
617	56294
618	55721
619	55865
620	55382
621	55658
622	55376
623	54441
624	54147
625	54240
626	54002
627	54033
628	53648
629	53272
630	53075
631	52827
632	52729
633	52611
634	52149
635	51570
636	51492
637	51353
638	51377
639	50902
640	50494
641	50420
642	50134
643	50058
644	49072
645	48954
646	49232
647	48435
648	48445
649	48254
650	47487
651	47974
652	47591
653	47386
654	46975
655	46807
656	46246
657	46767
658	46138
659	46056
660	45920
661	45168
662	44939
663	45407
664	44691
665	44179
666	44512
667	43872
668	43680
669	43496
670	43554
671	42970
672	43257
673	43113
674	42429
675	42548
676	42616
677	42076
678	41812
679	41616
680	41424
681	41368
682	40765
683	40657
684	40498
685	40441
686	40338
687	40280
688	39508
689	39951
690	39461
691	39273
692	39083
693	39263
694	38746
695	38970
696	38432
697	38865
698	38112
699	38085
700	38201
701	37744
702	37743
703	37418
704	37331
705	37505
706	37283
707	36520
708	37089
709	36684
710	36575
711	36390
712	36266
713	35980
714	35937
715	35861
716	36062
717	35878
718	35128
719	35687
720	35276
721	35094
722	35031
723	35045
724	34360
725	34498
726	34275
727	34211
728	34063
729	34026
730	33740
731	33639
732	33975
733	33337
734	33555
735	33164
736	33092
737	32813
738	32979
739	32506
740	32491
741	32573
742	32379
743	32351
744	32094
745	32277
746	31777
747	31904
748	31541
749	31446
750	31584
751	31292
752	31092
753	30742
754	30864
755	30895
756	30593
757	30516
758	30424
759	30189
760	30231
761	30027
762	29415
763	29705
764	29721
765	29528
766	29612
767	29205
768	29230
769	29078
770	28847
771	28910
772	29088
773	28702
774	29025
775	28665
776	28086
777	28271
778	28451
779	27923
780	28049
781	27709
782	27583
783	27969
784	27351
785	27522
786	27245
787	27430
788	26955
789	27416
790	26540
791	26730
792	26755
793	26706
794	26426
795	26522
796	26588
797	26365
798	26017
799	26000
800	26054
801	25964
802	25632
803	25762
804	25752
805	25668
806	25447
807	25157
808	25292
809	25050
810	25151
811	25093
812	24648
813	24777
814	24726
815	24515
816	24899
817	24385
818	24384
819	24172
820	24254
821	24264
822	24071
823	23941
824	23712
825	23877
826	23498
827	23877
828	23593
829	23479
830	23550
831	23254
832	23112
833	23248
834	23039
835	22867
836	23201
837	22793
838	22835
839	22771
840	22778
841	22284
842	22533
843	22613
844	22117
845	22230
846	22191
847	22071
848	21975
849	21826
850	22071
851	21635
852	21811
853	21817
854	21771
855	21472
856	21551
857	21319
858	21268
859	21086
860	21215
861	21097
862	21007
863	20713
864	20519
865	20677
866	20830
867	20648
868	20391
869	20155
870	20159
871	20292
872	20086
873	19758
874	20086
875	19642
876	19798
877	19605
878	19890
879	19381
880	19591
881	19519
882	19582
883	19133
884	19268
885	19321
886	19164
887	18990
888	18857
889	18719
890	18637
891	18578
892	18655
893	18305
894	18602
895	18558
896	18177
897	18290
898	18142
899	18139
900	18051
901	18025
902	17863
903	17597
904	18010
905	17815
906	17756
907	17748
908	17985
909	17591
910	17548
911	17344
912	17546
913	17319
914	17322
915	17179
916	17111
917	17104
918	17091
919	16978
920	16778
921	16635
922	16898
923	16837
924	16677
925	16599
926	16727
927	16318
928	16475
929	16327
930	16459
931	16319
932	16365
933	16081
934	15929
935	16015
936	15888
937	15825
938	15863
939	15792
940	15709
941	15881
942	15587
943	15718
944	15767
945	15502
946	15464
947	15577
948	15483
949	15436
950	15151
951	15327
952	15107
953	15152
954	14986
955	15134
956	15094
957	14761
958	14936
959	14943
960	14900
961	14590
962	15029
963	14784
964	14805
965	14492
966	14516
967	14448
968	14321
969	14356
970	14354
971	14233
972	14262
973	13941
974	14079
975	14052
976	13968
977	13947
978	13788
979	13881
980	13825
981	13678
982	13577
983	13625
984	13680
985	13411
986	13687
987	13475
988	13500
989	13325
990	13243
991	13145
992	13161
993	13004
994	13010
995	12847
996	12859
997	12580
998	12894
999	12881
1000	12762
1001	12752
1002	12687
1003	12560
1004	12557
1005	12400
1006	12286
1007	12497
1008	12507
1009	12087
1010	12202
1011	12174
1012	12159
1013	11977
1014	11880
1015	12069
1016	11847
1017	12077
1018	12101
1019	11917
1020	11957
1021	11777
1022	11878
1023	11739
1024	11717
1025	11582
1026	11524
1027	11664
1028	11424
1029	11415
1030	11361
1031	11350
1032	11241
1033	11211
1034	11215
1035	10929
1036	11001
1037	11146
1038	11092
1039	11055
1040	10799
1041	11060
1042	10978
1043	10869
1044	10938
1045	10662
1046	10848
1047	10767
1048	10550
1049	10753
1050	10714
1051	10637
1052	10609
1053	10396
1054	10681
1055	10394
1056	10414
1057	10268
1058	10519
1059	10316
1060	10243
1061	10304
1062	10171
1063	10191
1064	10224
1065	10333
1066	10096
1067	9937
1068	10003
1069	10116
1070	10094
1071	9996
1072	9915
1073	9691
1074	9876
1075	9957
1076	9889
1077	9773
1078	9890
1079	9750
1080	9745
1081	9480
1082	9605
1083	9580
1084	9572
1085	9501
1086	9351
1087	9544
1088	9325
1089	9465
1090	9304
1091	9299
1092	9249
1093	9201
1094	9243
1095	9278
1096	9135
1097	9029
1098	9091
1099	8854
1100	9045
1101	8957
1102	8930
1103	8916
1104	8962
1105	8771
1106	8809
1107	8758
1108	8690
1109	8685
1110	8652
1111	8651
1112	8539
1113	8628
1114	8610
1115	8494
1116	8414
1117	8415
1118	8411
1119	8405
1120	8212
1121	8454
1122	8393
1123	8222
1124	8322
1125	8199
1126	8198
1127	8240
1128	8159
1129	8045
1130	8054
1131	8053
1132	7905
1133	8050
1134	7829
1135	7945
1136	7935
1137	7899
1138	7896
1139	7820
1140	7721
1141	7638
1142	7677
1143	7859
1144	7634
1145	7678
1146	7628
1147	7499
1148	7816
1149	7528
1150	7413
1151	7501
1152	7623
1153	7442
1154	7402
1155	7471
1156	7363
1157	7364
1158	7321
1159	7292
1160	7470
1161	7269
1162	7183
1163	7174
1164	7318
1165	7102
1166	7093
1167	7057
1168	7045
1169	7143
1170	7079
1171	7004
1172	7115
1173	6946
1174	6932
1175	7026
1176	6812
1177	6948
1178	6831
1179	6787
1180	6826
1181	6823
1182	6906
1183	6748
1184	6854
1185	6613
1186	6727
1187	6780
1188	6582
1189	6621
1190	6613
1191	6641
1192	6654
1193	6426
1194	6550
1195	6497
1196	6373
1197	6575
1198	6546
1199	6343
1200	6135
1201	6314
1202	6354
1203	6426
1204	6237
1205	6209
1206	6235
1207	6269
1208	6259
1209	6055
1210	6086
1211	6077
1212	6111
1213	6079
1214	6068
1215	6082
1216	5861
1217	5861
1218	6206
1219	6088
1220	6051
1221	6008
1222	5928
1223	5800
1224	5875
1225	5861
1226	5821
1227	5898
1228	5917
1229	5710
1230	5674
1231	5803
1232	5753
1233	5689
1234	5768
1235	5547
1236	5620
1237	5627
1238	5593
1239	5486
1240	5447
1241	5531
1242	5568
1243	5282
1244	5643
1245	5377
1246	5502
1247	5326
1248	5422
1249	5328
1250	5332
1251	5231
1252	5147
1253	5306
1254	5437
1255	5321
1256	5234
1257	5195
1258	5201
1259	5175
1260	5233
1261	5135
1262	5126
1263	5089
1264	5106
1265	5191
1266	5068
1267	4954
1268	5225
1269	5146
1270	5056
1271	5137
1272	5023
1273	4933
1274	4883
1275	4927
1276	5020
1277	4914
1278	4831
1279	4860
1280	4788
1281	4846
1282	4925
1283	4794
1284	4807
1285	4785
1286	4800
1287	4673
1288	4781
1289	4893
1290	4648
1291	4758
1292	4634
1293	4654
1294	4747
1295	4709
1296	4560
1297	4669
1298	4727
1299	4747
1300	4659
1301	4634
1302	4436
1303	4557
1304	4437
1305	4512
1306	4410
1307	4542
1308	4503
1309	4290
1310	4317
1311	4335
1312	4499
1313	4475
1314	4270
1315	4279
1316	4312
1317	4332
1318	4315
1319	4242
1320	4347
1321	4206
1322	4240
1323	4262
1324	4342
1325	4238
1326	4174
1327	4075
1328	4165
1329	4090
1330	4168
1331	4110
1332	4117
1333	4249
1334	3997
1335	4049
1336	3926
1337	4057
1338	3981
1339	3970
1340	3890
1341	3924
1342	3934
1343	3916
1344	3921
1345	3859
1346	3895
1347	3794
1348	3802
1349	3793
1350	3807
1351	3860
1352	3783
1353	3753
1354	3793
1355	3732
1356	3705
1357	3701
1358	3750
1359	3704
1360	3682
1361	3772
1362	3685
1363	3615
1364	3683
1365	3570
1366	3627
1367	3637
1368	3693
1369	3509
1370	3650
1371	3474
1372	3569
1373	3462
1374	3499
1375	3521
1376	3459
1377	3413
1378	3433
1379	3367
1380	3375
1381	3353
1382	3350
1383	3492
1384	3457
1385	3294
1386	3368
1387	3426
1388	3267
1389	3342
1390	3310
1391	3288
1392	3261
1393	3251
1394	3367
1395	3284
1396	3258
1397	3219
1398	3192
1399	3164
1400	3065
1401	3208
1402	3222
1403	3139
1404	3187
1405	3284
1406	3143
1407	3116
1408	3118
1409	3114
1410	3085
1411	3140
1412	3097
1413	2973
1414	3003
1415	3077
1416	2940
1417	3075
1418	3030
1419	3088
1420	2958
1421	3061
1422	2964
1423	2941
1424	2890
1425	2911
1426	2816
1427	2927
1428	2873
1429	2956
1430	2842
1431	2858
1432	2896
1433	2916
1434	2935
1435	2838
1436	2883
1437	2888
1438	2814
1439	2918
1440	2811
1441	2815
1442	2864
1443	2716
1444	2750
1445	2772
1446	2689
1447	2794
1448	2693
1449	2771
1450	2708
1451	2764
1452	2700
1453	2628
1454	2733
1455	2671
1456	2698
1457	2671
1458	2745
1459	2627
1460	2610
1461	2601
1462	2578
1463	2727
1464	2561
1465	2536
1466	2599
1467	2501
1468	2501
1469	2569
1470	2585
1471	2459
1472	2539
1473	2562
1474	2509
1475	2479
1476	2423
1477	2412
1478	2413
1479	2479
1480	2414
1481	2412
1482	2457
1483	2437
1484	2471
1485	2389
1486	2469
1487	2398
1488	2350
1489	2346
1490	2323
1491	2312
1492	2345
1493	2410
1494	2310
1495	2280
1496	2282
1497	2323
1498	2252
1499	2330
1500	2271
1501	2334
1502	2283
1503	2225
1504	2243
1505	2250
1506	2173
1507	2266
1508	2223
1509	2196
1510	2221
1511	2180
1512	2153
1513	2132
1514	2139
1515	2165
1516	2157
1517	2101
1518	2137
1519	2163
1520	2119
1521	2116
1522	2110
1523	2209
1524	2041
1525	2161
1526	2127
1527	2047
1528	2119
1529	2070
1530	2012
1531	1983
1532	2114
1533	2093
1534	2009
1535	2103
1536	2041
1537	1990
1538	2019
1539	1985
1540	1956
1541	1976
1542	2007
1543	1917
1544	1954
1545	2029
1546	1954
1547	1980
1548	1980
1549	1999
1550	1958
1551	1841
1552	1960
1553	1948
1554	2009
1555	1939
1556	1894
1557	1943
1558	1911
1559	1802
1560	1979
1561	1864
1562	1888
1563	1861
1564	1798
1565	1833
1566	1806
1567	1865
1568	1750
1569	1780
1570	1835
1571	1865
1572	1865
1573	1698
1574	1794
1575	1946
1576	1774
1577	1724
1578	1671
1579	1780
1580	1807
1581	1788
1582	1687
1583	1754
1584	1683
1585	1761
1586	1718
1587	1728
1588	1644
1589	1660
1590	1656
1591	1627
1592	1719
1593	1665
1594	1605
1595	1699
1596	1719
1597	1595
1598	1665
1599	1703
1600	1751
1601	1692
1602	1655
1603	1638
1604	1628
1605	1643
1606	1621
1607	1648
1608	1578
1609	1532
1610	1662
1611	1583
1612	1500
1613	1634
1614	1544
1615	1580
1616	1451
1617	1542
1618	1541
1619	1493
1620	1560
1621	1519
1622	1578
1623	1562
1624	1539
1625	1560
1626	1534
1627	1506
1628	1445
1629	1475
1630	1451
1631	1447
1632	1414
1633	1434
1634	1483
1635	1481
1636	1393
1637	1539
1638	1421
1639	1497
1640	1416
1641	1450
1642	1497
1643	1408
1644	1497
1645	1423
1646	1466
1647	1363
1648	1396
1649	1354
1650	1421
1651	1389
1652	1323
1653	1357
1654	1326
1655	1401
1656	1356
1657	1397
1658	1332
1659	1299
1660	1385
1661	1357
1662	1311
1663	1398
1664	1346
1665	1278
1666	1309
1667	1320
1668	1368
1669	1277
1670	1281
1671	1298
1672	1241
1673	1319
1674	1280
1675	1294
1676	1257
1677	1237
1678	1222
1679	1304
1680	1283
1681	1271
1682	1300
1683	1298
1684	1331
1685	1242
1686	1324
1687	1235
1688	1236
1689	1199
1690	1247
1691	1115
1692	1230
1693	1190
1694	1256
1695	1214
1696	1165
1697	1164
1698	1231
1699	1217
1700	1183
1701	1118
1702	1218
1703	1191
1704	1189
1705	1126
1706	1142
1707	1130
1708	1080
1709	1127
1710	1119
1711	1087
1712	1107
1713	1110
1714	1075
1715	1166
1716	1095
1717	1091
1718	1104
1719	1065
1720	1110
1721	1043
1722	1110
1723	1041
1724	1139
1725	1121
1726	1083
1727	1093
1728	1026
1729	1050
1730	1068
1731	1012
1732	1028
1733	1039
1734	1054
1735	1076
1736	1038
1737	1100
1738	1098
1739	1091
1740	1068
1741	987
1742	999
1743	1021
1744	1007
1745	1090
1746	951
1747	1048
1748	1006
1749	1003
1750	989
1751	987
1752	1000
1753	1032
1754	1008
1755	970
1756	975
1757	968
1758	1030
1759	976
1760	972
1761	981
1762	1004
1763	995
1764	934
1765	1011
1766	904
1767	934
1768	938
1769	964
1770	959
1771	935
1772	914
1773	927
1774	1034
1775	895
1776	910
1777	869
1778	932
1779	915
1780	935
1781	961
1782	902
1783	862
1784	892
1785	846
1786	877
1787	917
1788	886
1789	866
1790	910
1791	872
1792	863
1793	844
1794	832
1795	793
1796	858
1797	859
1798	806
1799	842
1800	856
1801	850
1802	846
1803	857
1804	826
1805	833
1806	839
1807	853
1808	812
1809	818
1810	820
1811	795
1812	830
1813	810
1814	819
1815	804
1816	750
1817	779
1818	764
1819	768
1820	782
1821	836
1822	800
1823	798
1824	801
1825	769
1826	785
1827	761
1828	766
1829	760
1830	758
1831	773
1832	736
1833	763
1834	778
1835	758
1836	755
1837	767
1838	711
1839	802
1840	788
1841	755
1842	755
1843	763
1844	782
1845	733
1846	771
1847	727
1848	721
1849	770
1850	715
1851	726
1852	703
1853	681
1854	682
1855	733
1856	707
1857	709
1858	743
1859	717
1860	727
1861	688
1862	718
1863	665
1864	694
1865	674
1866	680
1867	702
1868	697
1869	691
1870	687
1871	671
1872	602
1873	692
1874	638
1875	693
1876	699
1877	628
1878	707
1879	670
1880	671
1881	616
1882	653
1883	615
1884	624
1885	650
1886	642
1887	654
1888	625
1889	671
1890	614
1891	665
1892	660
1893	624
1894	642
1895	631
1896	595
1897	627
1898	578
1899	571
1900	586
1901	590
1902	575
1903	580
1904	571
1905	568
1906	625
1907	590
1908	608
1909	594
1910	604
1911	618
1912	555
1913	594
1914	579
1915	624
1916	577
1917	553
1918	557
1919	603
1920	593
1921	546
1922	561
1923	590
1924	535
1925	572
1926	488
1927	555
1928	570
1929	516
1930	570
1931	534
1932	556
1933	547
1934	512
1935	546
1936	538
1937	570
1938	535
1939	556
1940	565
1941	534
1942	572
1943	541
1944	529
1945	500
1946	514
1947	530
1948	580
1949	555
1950	529
1951	547
1952	540
1953	490
1954	514
1955	555
1956	491
1957	507
1958	559
1959	492
1960	486
1961	546
1962	547
1963	522
1964	505
1965	476
1966	483
1967	499
1968	509
1969	505
1970	513
1971	484
1972	518
1973	495
1974	504
1975	500
1976	510
1977	500
1978	457
1979	526
1980	467
1981	480
1982	458
1983	456
1984	436
1985	468
1986	465
1987	479
1988	463
1989	503
1990	481
1991	470
1992	448
1993	460
1994	467
1995	425
1996	485
1997	471
1998	477
1999	464
2000	457
2001	418
2002	445
2003	441
2004	446
2005	428
2006	446
2007	428
2008	393
2009	441
2010	421
2011	434
2012	429
2013	423
2014	415
2015	425
2016	417
2017	389
2018	394
2019	431
2020	424
2021	419
2022	415
2023	399
2024	394
2025	413
2026	423
2027	378
2028	435
2029	399
2030	382
2031	392
2032	421
2033	420
2034	412
2035	379
2036	408
2037	406
2038	411
2039	388
2040	420
2041	413
2042	351
2043	416
2044	394
2045	379
2046	402
2047	414
2048	386
2049	386
2050	393
2051	414
2052	386
2053	387
2054	418
2055	371
2056	367
2057	388
2058	354
2059	378
2060	386
2061	349
2062	357
2063	362
2064	393
2065	335
2066	328
2067	378
2068	348
2069	362
2070	330
2071	357
2072	361
2073	328
2074	358
2075	374
2076	341
2077	351
2078	332
2079	345
2080	342
2081	348
2082	335
2083	356
2084	376
2085	338
2086	321
2087	346
2088	344
2089	311
2090	389
2091	346
2092	338
2093	362
2094	333
2095	369
2096	327
2097	337
2098	341
2099	314
2100	342
2101	363
2102	368
2103	364
2104	349
2105	317
2106	381
2107	328
2108	347
2109	333
2110	387
2111	359
2112	342
2113	356
2114	358
2115	346
2116	348
2117	358
2118	375
2119	319
2120	329
2121	352
2122	356
2123	303
2124	370
2125	345
2126	354
2127	341
2128	339
2129	315
2130	324
2131	353
2132	361
2133	372
2134	342
2135	374
2136	345
2137	353
2138	369
2139	353
2140	340
2141	332
2142	338
2143	375
2144	359
2145	367
2146	337
2147	379
2148	372
2149	346
2150	355
2151	350
2152	324
2153	356
2154	354
2155	353
2156	359
2157	360
2158	407
2159	346
2160	364
2161	376
2162	357
2163	329
2164	350
2165	329
2166	384
2167	347
2168	336
2169	359
2170	352
2171	319
2172	372
2173	323
2174	329
2175	366
2176	301
2177	367
2178	339
2179	351
2180	354
2181	323
2182	349
2183	364
2184	323
2185	368
2186	365
2187	328
2188	374
2189	340
2190	358
2191	332
2192	361
2193	345
2194	331
2195	324
2196	323
2197	341
2198	312
2199	346
2200	382
2201	357
2202	371
2203	315
2204	298
2205	352
2206	327
2207	333
2208	342
2209	333
2210	337
2211	354
2212	316
2213	315
2214	369
2215	348
2216	331
2217	332
2218	328
2219	349
2220	316
2221	368
2222	340
2223	321
2224	319
2225	303
2226	294
2227	314
2228	357
2229	340
2230	299
2231	316
2232	305
2233	336
2234	308
2235	322
2236	344
2237	307
2238	323
2239	327
2240	300
2241	327
2242	314
2243	306
2244	323
2245	326
2246	315
2247	300
2248	303
2249	317
2250	304
2251	279
2252	328
2253	298
2254	348
2255	304
2256	291
2257	310
2258	301
2259	320
2260	314
2261	283
2262	291
2263	302
2264	284
2265	316
2266	280
2267	307
2268	311
2269	302
2270	273
2271	275
2272	297
2273	291
2274	340
2275	285
2276	257
2277	272
2278	269
2279	319
2280	275
2281	299
2282	265
2283	295
2284	291
2285	285
2286	267
2287	305
2288	291
2289	258
2290	284
2291	244
2292	272
2293	293
2294	251
2295	286
2296	296
2297	216
2298	288
2299	252
2300	270
2301	287
2302	265
2303	291
2304	270
2305	258
2306	264
2307	259
2308	261
2309	256
2310	268
2311	253
2312	272
2313	251
2314	277
2315	267
2316	262
2317	267
2318	252
2319	268
2320	258
2321	276
2322	290
2323	238
2324	254
2325	252
2326	251
2327	243
2328	238
2329	242
2330	255
2331	267
2332	291
2333	232
2334	245
2335	255
2336	255
2337	225
2338	249
2339	284
2340	258
2341	259
2342	224
2343	241
2344	242
2345	277
2346	253
2347	233
2348	248
2349	267
2350	246
2351	226
2352	229
2353	248
2354	254
2355	246
2356	263
2357	240
2358	272
2359	235
2360	270
2361	234
2362	221
2363	256
2364	234
2365	249
2366	234
2367	257
2368	245
2369	226
2370	230
2371	228
2372	233
2373	206
2374	229
2375	223
2376	238
2377	235
2378	220
2379	248
2380	216
2381	251
2382	206
2383	231
2384	235
2385	231
2386	239
2387	243
2388	219
2389	216
2390	238
2391	220
2392	189
2393	226
2394	228
2395	228
2396	227
2397	230
2398	215
2399	220
2400	188
2401	243
2402	218
2403	199
2404	226
2405	222
2406	183
2407	217
2408	200
2409	206
2410	229
2411	243
2412	210
2413	215
2414	205
2415	200
2416	200
2417	203
2418	230
2419	210
2420	208
2421	210
2422	201
2423	207
2424	217
2425	216
2426	191
2427	206
2428	197
2429	215
2430	196
2431	205
2432	194
2433	220
2434	199
2435	216
2436	188
2437	229
2438	187
2439	237
2440	192
2441	194
2442	210
2443	201
2444	190
2445	191
2446	208
2447	194
2448	183
2449	207
2450	193
2451	205
2452	167
2453	182
2454	217
2455	200
2456	193
2457	196
2458	183
2459	210
2460	198
2461	207
2462	188
2463	205
2464	206
2465	183
2466	193
2467	210
2468	177
2469	192
2470	181
2471	188
2472	168
2473	197
2474	205
2475	185
2476	203
2477	178
2478	196
2479	207
2480	206
2481	212
2482	191
2483	189
2484	170
2485	202
2486	219
2487	195
2488	180
2489	183
2490	187
2491	207
2492	190
2493	160
2494	203
2495	182
2496	190
2497	178
2498	193
2499	174
2500	184
2501	191
2502	185
2503	212
2504	194
2505	157
2506	155
2507	194
2508	203
2509	169
2510	205
2511	185
2512	156
2513	208
2514	173
2515	189
2516	174
2517	168
2518	182
2519	218
2520	161
2521	170
2522	197
2523	172
2524	160
2525	165
2526	185
2527	173
2528	163
2529	180
2530	186
2531	176
2532	199
2533	157
2534	166
2535	171
2536	203
2537	179
2538	175
2539	207
2540	174
2541	175
2542	166
2543	167
2544	155
2545	171
2546	203
2547	191
2548	170
2549	158
2550	163
2551	158
2552	176
2553	168
2554	165
2555	170
2556	176
2557	174
2558	180
2559	163
2560	175
2561	202
2562	161
2563	165
2564	167
2565	204
2566	171
2567	177
2568	193
2569	160
2570	160
2571	162
2572	171
2573	158
2574	147
2575	168
2576	158
2577	199
2578	179
2579	148
2580	159
2581	152
2582	190
2583	143
2584	162
2585	134
2586	151
2587	162
2588	171
2589	157
2590	174
2591	174
2592	155
2593	157
2594	157
2595	152
2596	148
2597	184
2598	174
2599	162
2600	159
2601	170
2602	171
2603	176
2604	151
2605	163
2606	160
2607	154
2608	151
2609	135
2610	149
2611	156
2612	149
2613	158
2614	171
2615	156
2616	172
2617	119
2618	158
2619	166
2620	140
2621	135
2622	168
2623	154
2624	157
2625	151
2626	140
2627	168
2628	157
2629	149
2630	146
2631	137
2632	161
2633	152
2634	150
2635	162
2636	175
2637	151
2638	134
2639	169
2640	156
2641	139
2642	171
2643	158
2644	125
2645	158
2646	148
2647	144
2648	146
2649	143
2650	155
2651	167
2652	134
2653	130
2654	133
2655	166
2656	153
2657	152
2658	157
2659	142
2660	138
2661	121
2662	124
2663	137
2664	145
2665	111
2666	131
2667	131
2668	163
2669	135
2670	154
2671	128
2672	141
2673	130
2674	160
2675	144
2676	152
2677	148
2678	142
2679	156
2680	144
2681	139
2682	141
2683	160
2684	130
2685	145
2686	151
2687	130
2688	127
2689	146
2690	135
2691	144
2692	122
2693	150
2694	122
2695	121
2696	142
2697	133
2698	147
2699	151
2700	152
2701	123
2702	118
2703	123
2704	138
2705	149
2706	148
2707	134
2708	129
2709	125
2710	133
2711	120
2712	130
2713	131
2714	122
2715	129
2716	124
2717	125
2718	123
2719	137
2720	147
2721	126
2722	123
2723	134
2724	132
2725	130
2726	121
2727	122
2728	115
2729	130
2730	141
2731	134
2732	132
2733	146
2734	119
2735	115
2736	110
2737	128
2738	134
2739	122
2740	129
2741	140
2742	127
2743	136
2744	120
2745	126
2746	117
2747	125
2748	119
2749	109
2750	126
2751	123
2752	121
2753	121
2754	142
2755	128
2756	126
2757	101
2758	129
2759	119
2760	107
2761	108
2762	137
2763	117
2764	133
2765	130
2766	110
2767	121
2768	108
2769	138
2770	127
2771	113
2772	113
2773	138
2774	113
2775	113
2776	112
2777	106
2778	131
2779	108
2780	116
2781	106
2782	131
2783	99
2784	103
2785	101
2786	107
2787	124
2788	128
2789	107
2790	112
2791	115
2792	125
2793	102
2794	107
2795	95
2796	86
2797	101
2798	100
2799	115
2800	109
2801	110
2802	106
2803	104
2804	104
2805	107
2806	103
2807	96
2808	114
2809	104
2810	107
2811	94
2812	111
2813	129
2814	111
2815	118
2816	108
2817	102
2818	85
2819	110
2820	94
2821	105
2822	132
2823	122
2824	94
2825	100
2826	98
2827	86
2828	106
2829	101
2830	94
2831	97
2832	111
2833	101
2834	107
2835	87
2836	86
2837	91
2838	114
2839	105
2840	91
2841	77
2842	108
2843	79
2844	97
2845	117
2846	100
2847	85
2848	99
2849	110
2850	101
2851	100
2852	89
2853	80
2854	101
2855	96
2856	98
2857	89
2858	87
2859	109
2860	98
2861	120
2862	103
2863	106
2864	110
2865	89
2866	104
2867	103
2868	97
2869	76
2870	86
2871	88
2872	89
2873	90
2874	99
2875	88
2876	112
2877	87
2878	108
2879	105
2880	92
2881	92
2882	87
2883	98
2884	90
2885	107
2886	99
2887	100
2888	96
2889	90
2890	89
2891	96
2892	95
2893	95
2894	98
2895	86
2896	89
2897	90
2898	86
2899	85
2900	92
2901	86
2902	88
2903	86
2904	83
2905	83
2906	77
2907	84
2908	74
2909	79
2910	96
2911	85
2912	88
2913	69
2914	88
2915	106
2916	76
2917	93
2918	77
2919	88
2920	81
2921	99
2922	81
2923	95
2924	103
2925	100
2926	69
2927	90
2928	71
2929	64
2930	105
2931	96
2932	83
2933	102
2934	79
2935	74
2936	77
2937	74
2938	88
2939	61
2940	88
2941	78
2942	92
2943	84
2944	72
2945	101
2946	77
2947	74
2948	77
2949	74
2950	76
2951	66
2952	78
2953	73
2954	67
2955	80
2956	73
2957	76
2958	80
2959	74
2960	70
2961	71
2962	85
2963	77
2964	87
2965	77
2966	79
2967	77
2968	85
2969	61
2970	65
2971	92
2972	54
2973	77
2974	78
2975	64
2976	68
2977	95
2978	71
2979	75
2980	79
2981	71
2982	62
2983	73
2984	73
2985	68
2986	62
2987	79
2988	62
2989	74
2990	73
2991	73
2992	90
2993	66
2994	84
2995	72
2996	79
2997	69
2998	80
2999	81
3000	89
3001	76
3002	71
3003	64
3004	72
3005	57
3006	66
3007	74
3008	81
3009	60
3010	86
3011	74
3012	73
3013	76
3014	65
3015	62
3016	70
3017	70
3018	83
3019	67
3020	69
3021	65
3022	55
3023	72
3024	75
3025	55
3026	61
3027	64
3028	63
3029	87
3030	64
3031	62
3032	72
3033	77
3034	72
3035	70
3036	65
3037	57
3038	62
3039	66
3040	59
3041	70
3042	91
3043	63
3044	60
3045	56
3046	58
3047	77
3048	76
3049	66
3050	76
3051	66
3052	71
3053	67
3054	60
3055	74
3056	59
3057	63
3058	69
3059	55
3060	63
3061	59
3062	57
3063	58
3064	68
3065	61
3066	62
3067	52
3068	67
3069	65
3070	65
3071	71
3072	54
3073	65
3074	77
3075	74
3076	57
3077	59
3078	54
3079	62
3080	55
3081	52
3082	61
3083	51
3084	53
3085	61
3086	60
3087	56
3088	60
3089	61
3090	58
3091	60
3092	49
3093	57
3094	54
3095	65
3096	51
3097	60
3098	58
3099	66
3100	46
3101	70
3102	54
3103	52
3104	68
3105	56
3106	55
3107	36
3108	55
3109	45
3110	63
3111	58
3112	65
3113	62
3114	53
3115	64
3116	62
3117	65
3118	46
3119	58
3120	61
3121	62
3122	56
3123	53
3124	48
3125	46
3126	63
3127	68
3128	48
3129	57
3130	42
3131	56
3132	54
3133	50
3134	41
3135	51
3136	56
3137	56
3138	53
3139	67
3140	49
3141	74
3142	73
3143	62
3144	50
3145	46
3146	56
3147	63
3148	47
3149	50
3150	49
3151	60
3152	54
3153	41
3154	49
3155	57
3156	48
3157	51
3158	47
3159	54
3160	47
3161	63
3162	40
3163	48
3164	46
3165	51
3166	57
3167	42
3168	58
3169	66
3170	60
3171	57
3172	45
3173	60
3174	61
3175	42
3176	45
3177	55
3178	62
3179	55
3180	54
3181	55
3182	46
3183	41
3184	60
3185	50
3186	27
3187	45
3188	55
3189	58
3190	48
3191	52
3192	52
3193	55
3194	49
3195	45
3196	37
3197	48
3198	46
3199	46
3200	63
3201	51
3202	59
3203	55
3204	47
3205	55
3206	57
3207	34
3208	54
3209	44
3210	42
3211	51
3212	44
3213	54
3214	41
3215	53
3216	52
3217	53
3218	50
3219	49
3220	55
3221	45
3222	50
3223	42
3224	47
3225	53
3226	51
3227	47
3228	54
3229	57
3230	68
3231	36
3232	40
3233	53
3234	39
3235	54
3236	43
3237	46
3238	46
3239	45
3240	35
3241	45
3242	54
3243	52
3244	49
3245	45
3246	43
3247	51
3248	52
3249	44
3250	45
3251	35
3252	49
3253	48
3254	48
3255	49
3256	47
3257	46
3258	49
3259	53
3260	42
3261	44
3262	39
3263	51
3264	36
3265	54
3266	52
3267	52
3268	45
3269	39
3270	56
3271	45
3272	36
3273	40
3274	48
3275	39
3276	40
3277	51
3278	42
3279	51
3280	48
3281	40
3282	44
3283	47
3284	57
3285	46
3286	40
3287	42
3288	43
3289	49
3290	51
3291	45
3292	38
3293	60
3294	43
3295	43
3296	52
3297	40
3298	35
3299	47
3300	39
3301	52
3302	35
3303	40
3304	37
3305	43
3306	55
3307	47
3308	35
3309	42
3310	44
3311	39
3312	37
3313	39
3314	35
3315	44
3316	51
3317	38
3318	46
3319	33
3320	47
3321	39
3322	40
3323	41
3324	40
3325	41
3326	31
3327	47
3328	37
3329	38
3330	32
3331	44
3332	49
3333	34
3334	37
3335	51
3336	39
3337	54
3338	50
3339	41
3340	44
3341	42
3342	39
3343	43
3344	50
3345	47
3346	32
3347	39
3348	47
3349	34
3350	40
3351	39
3352	40
3353	37
3354	44
3355	31
3356	48
3357	41
3358	38
3359	38
3360	40
3361	44
3362	48
3363	35
3364	36
3365	40
3366	45
3367	42
3368	45
3369	31
3370	45
3371	38
3372	35
3373	39
3374	39
