Item name: Decay

Real time: 4420.06
Live time: 4268.36

Comment: 


Chan	Data
1	0
2	0
3	0
4	0
5	0
6	0
7	0
8	0
9	0
10	0
11	0
12	0
13	0
14	0
15	0
16	0
17	0
18	0
19	0
20	0
21	0
22	0
23	0
24	0
25	0
26	0
27	0
28	0
29	0
30	0
31	0
32	0
33	0
34	0
35	0
36	0
37	0
38	0
39	0
40	0
41	0
42	0
43	0
44	0
45	0
46	0
47	0
48	0
49	0
50	0
51	0
52	0
53	0
54	0
55	0
56	0
57	0
58	0
59	0
60	0
61	0
62	0
63	0
64	0
65	0
66	0
67	0
68	0
69	0
70	0
71	0
72	0
73	0
74	0
75	0
76	0
77	0
78	0
79	0
80	0
81	0
82	0
83	0
84	0
85	0
86	0
87	0
88	0
89	0
90	0
91	0
92	0
93	0
94	0
95	0
96	0
97	0
98	0
99	0
100	0
101	0
102	0
103	3
104	0
105	9
106	9
107	11
108	10
109	11
110	13
111	12
112	11
113	12
114	15
115	5
116	15
117	6
118	14
119	12
120	17
121	10
122	13
123	13
124	23
125	9
126	15
127	14
128	9
129	10
130	8
131	9
132	12
133	15
134	11
135	9
136	19
137	12
138	15
139	7
140	10
141	7
142	18
143	10
144	6
145	10
146	17
147	11
148	12
149	10
150	10
151	18
152	7
153	15
154	16
155	12
156	9
157	13
158	8
159	11
160	10
161	15
162	4
163	8
164	12
165	8
166	12
167	10
168	12
169	8
170	13
171	17
172	8
173	11
174	7
175	4
176	10
177	11
178	12
179	10
180	14
181	14
182	7
183	10
184	11
185	9
186	15
187	11
188	5
189	14
190	13
191	13
192	13
193	19
194	13
195	11
196	11
197	9
198	13
199	15
200	11
201	10
202	14
203	8
204	13
205	18
206	12
207	11
208	8
209	10
210	12
211	14
212	14
213	9
214	17
215	13
216	12
217	14
218	6
219	12
220	14
221	12
222	8
223	6
224	17
225	9
226	12
227	14
228	6
229	8
230	12
231	11
232	13
233	20
234	9
235	10
236	10
237	19
238	13
239	12
240	12
241	14
242	10
243	14
244	11
245	14
246	8
247	12
248	13
249	14
250	8
251	7
252	8
253	13
254	9
255	6
256	9
257	12
258	15
259	13
260	8
261	16
262	9
263	12
264	12
265	11
266	16
267	10
268	8
269	13
270	13
271	9
272	12
273	14
274	12
275	14
276	11
277	10
278	10
279	15
280	14
281	11
282	15
283	10
284	11
285	15
286	14
287	7
288	6
289	6
290	13
291	19
292	10
293	8
294	10
295	8
296	13
297	9
298	8
299	5
300	13
301	13
302	10
303	12
304	11
305	7
306	13
307	10
308	10
309	14
310	13
311	9
312	13
313	11
314	10
315	9
316	10
317	9
318	11
319	14
320	9
321	13
322	14
323	8
324	12
325	11
326	14
327	10
328	11
329	10
330	5
331	15
332	3
333	12
334	14
335	16
336	10
337	12
338	11
339	7
340	12
341	11
342	9
343	9
344	12
345	9
346	11
347	18
348	16
349	10
350	17
351	10
352	15
353	14
354	11
355	13
356	13
357	17
358	16
359	8
360	9
361	12
362	7
363	5
364	7
365	11
366	13
367	10
368	7
369	7
370	10
371	10
372	9
373	8
374	12
375	12
376	19
377	11
378	10
379	18
380	14
381	16
382	8
383	10
384	8
385	11
386	10
387	12
388	11
389	6
390	5
391	12
392	12
393	12
394	8
395	9
396	10
397	14
398	15
399	8
400	8
401	16
402	16
403	11
404	4
405	12
406	8
407	11
408	13
409	17
410	11
411	10
412	14
413	18
414	11
415	15
416	11
417	13
418	8
419	14
420	10
421	14
422	12
423	11
424	13
425	11
426	9
427	11
428	10
429	18
430	11
431	9
432	6
433	12
434	16
435	3
436	17
437	8
438	15
439	6
440	16
441	11
442	11
443	8
444	15
445	13
446	10
447	4
448	11
449	18
450	13
451	13
452	12
453	19
454	8
455	19
456	11
457	9
458	5
459	16
460	6
461	9
462	12
463	10
464	12
465	8
466	10
467	8
468	19
469	14
470	8
471	15
472	14
473	8
474	12
475	13
476	12
477	14
478	12
479	7
480	10
481	12
482	21
483	12
484	11
485	9
486	13
487	17
488	23
489	26
490	34
491	25
492	41
493	43
494	47
495	53
496	70
497	78
498	82
499	107
500	134
501	156
502	189
503	253
504	281
505	366
506	426
507	587
508	709
509	920
510	1153
511	1586
512	2025
513	2701
514	3666
515	4757
516	6177
517	8014
518	10492
519	13177
520	16503
521	20391
522	25442
523	30430
524	36162
525	42289
526	49343
527	56001
528	62175
529	68866
530	75024
531	80388
532	86010
533	89342
534	93387
535	96619
536	98428
537	98994
538	99483
539	100001
540	99537
541	98404
542	97111
543	95811
544	93645
545	93005
546	90974
547	89092
548	87423
549	85861
550	83819
551	82211
552	81217
553	78455
554	77859
555	76829
556	74335
557	73775
558	72197
559	70969
560	69673
561	68565
562	67534
563	66482
564	65049
565	64062
566	63253
567	61972
568	61241
569	60456
570	59343
571	58262
572	57588
573	56460
574	56261
575	55016
576	54287
577	53703
578	52918
579	52220
580	51764
581	50728
582	50378
583	49568
584	49163
585	47977
586	47304
587	47015
588	46360
589	46234
590	45316
591	44830
592	44520
593	43539
594	43128
595	42981
596	42480
597	41913
598	41150
599	40896
600	40459
601	40426
602	40149
603	39510
604	38480
605	38400
606	38405
607	37728
608	37108
609	37252
610	36734
611	36194
612	36040
613	36200
614	35457
615	35475
616	35087
617	34504
618	34258
619	34232
620	33514
621	33461
622	33585
623	33022
624	32538
625	32833
626	32364
627	32209
628	31704
629	31504
630	31100
631	31195
632	30912
633	30552
634	30427
635	30408
636	29923
637	29842
638	29528
639	29563
640	28935
641	28589
642	28428
643	28139
644	28302
645	27853
646	27599
647	27533
648	27326
649	27433
650	27001
651	26653
652	26198
653	26267
654	26221
655	25850
656	25564
657	25397
658	25024
659	24936
660	24957
661	24780
662	24513
663	24318
664	23945
665	23786
666	23935
667	23656
668	23421
669	23139
670	23143
671	23198
672	22554
673	22446
674	22574
675	22094
676	22207
677	22019
678	21841
679	21917
680	21668
681	21633
682	21254
683	21127
684	20927
685	20938
686	20633
687	20670
688	20456
689	20311
690	20390
691	20005
692	20128
693	20195
694	19693
695	19729
696	19604
697	19688
698	19625
699	19536
700	19405
701	19186
702	19008
703	18756
704	18679
705	18560
706	18584
707	18394
708	18370
709	18392
710	18326
711	18108
712	18217
713	17940
714	18026
715	17505
716	17398
717	17384
718	17583
719	17695
720	17398
721	17063
722	17398
723	17123
724	17341
725	16859
726	16856
727	16753
728	16987
729	16747
730	16406
731	16426
732	16636
733	16419
734	16071
735	16252
736	16106
737	16157
738	16206
739	16117
740	15824
741	15629
742	15760
743	15825
744	15505
745	15613
746	15123
747	15435
748	15146
749	15324
750	15061
751	14980
752	14964
753	14824
754	14738
755	15145
756	14622
757	14719
758	14795
759	14723
760	14417
761	14454
762	14312
763	14515
764	14232
765	14093
766	13908
767	14090
768	13781
769	14070
770	13950
771	13899
772	13637
773	13497
774	13477
775	13630
776	13427
777	13214
778	13206
779	13421
780	13067
781	13106
782	12920
783	13120
784	13004
785	12902
786	12655
787	12741
788	12679
789	12817
790	12651
791	12492
792	12489
793	12419
794	12286
795	12557
796	12155
797	12187
798	12347
799	12058
800	12104
801	12183
802	12065
803	11923
804	12008
805	11906
806	11686
807	11712
808	11805
809	11713
810	11692
811	11565
812	11674
813	11336
814	11548
815	11493
816	11304
817	11383
818	11343
819	11417
820	11186
821	10892
822	11193
823	11095
824	11188
825	10880
826	10794
827	10893
828	10651
829	10785
830	10666
831	10773
832	10760
833	10518
834	10550
835	10734
836	10518
837	10488
838	10405
839	10480
840	10332
841	10379
842	10289
843	10229
844	10085
845	10146
846	10002
847	10044
848	10195
849	9905
850	9960
851	9923
852	9753
853	9745
854	9783
855	9889
856	9822
857	9700
858	9552
859	9456
860	9548
861	9472
862	9466
863	9428
864	9553
865	9308
866	9574
867	9386
868	9159
869	9180
870	9199
871	9201
872	9262
873	8971
874	9113
875	9114
876	9053
877	8826
878	8956
879	9032
880	8722
881	8708
882	8790
883	8717
884	8866
885	8648
886	8691
887	8561
888	8428
889	8479
890	8504
891	8407
892	8345
893	8325
894	8336
895	8254
896	8351
897	8257
898	8153
899	8129
900	8022
901	8081
902	8014
903	8058
904	7985
905	8077
906	8143
907	7842
908	7870
909	7931
910	7885
911	7912
912	7652
913	7768
914	7708
915	7705
916	7701
917	7554
918	7651
919	7669
920	7593
921	7491
922	7356
923	7575
924	7452
925	7469
926	7287
927	7436
928	7474
929	7174
930	7278
931	7329
932	7252
933	7286
934	7206
935	7187
936	7324
937	7150
938	7112
939	7144
940	7007
941	7202
942	6955
943	7089
944	7025
945	7028
946	6906
947	6805
948	6848
949	6852
950	6669
951	6663
952	6829
953	6708
954	6614
955	6738
956	6661
957	6756
958	6541
959	6586
960	6653
961	6486
962	6480
963	6443
964	6548
965	6516
966	6482
967	6426
968	6411
969	6348
970	6266
971	6177
972	6227
973	6309
974	6173
975	6187
976	6167
977	5978
978	5991
979	6009
980	6110
981	6242
982	5974
983	6059
984	5963
985	6032
986	6001
987	5981
988	5812
989	5851
990	5834
991	5748
992	5832
993	5875
994	5842
995	5584
996	5759
997	5718
998	5666
999	5792
1000	5617
1001	5647
1002	5421
1003	5518
1004	5630
1005	5404
1006	5573
1007	5263
1008	5560
1009	5341
1010	5352
1011	5399
1012	5345
1013	5309
1014	5241
1015	5238
1016	5180
1017	5292
1018	5205
1019	5288
1020	5235
1021	5314
1022	5077
1023	4973
1024	5111
1025	5060
1026	5068
1027	4983
1028	5033
1029	5099
1030	4993
1031	4906
1032	5027
1033	4838
1034	4756
1035	4820
1036	4881
1037	4941
1038	4948
1039	4854
1040	4829
1041	4742
1042	4790
1043	4740
1044	4728
1045	4798
1046	4666
1047	4699
1048	4586
1049	4713
1050	4620
1051	4716
1052	4592
1053	4578
1054	4618
1055	4569
1056	4429
1057	4639
1058	4619
1059	4498
1060	4525
1061	4539
1062	4490
1063	4370
1064	4389
1065	4321
1066	4400
1067	4439
1068	4325
1069	4371
1070	4308
1071	4381
1072	4290
1073	4275
1074	4305
1075	4455
1076	4212
1077	4214
1078	4195
1079	4219
1080	4139
1081	4250
1082	4153
1083	4088
1084	4123
1085	4047
1086	4058
1087	4110
1088	4041
1089	4143
1090	4076
1091	4133
1092	3993
1093	3959
1094	4079
1095	4056
1096	3890
1097	4009
1098	3927
1099	3908
1100	3972
1101	3875
1102	3865
1103	3810
1104	3861
1105	3818
1106	3697
1107	3748
1108	3754
1109	3772
1110	3765
1111	3657
1112	3734
1113	3620
1114	3689
1115	3620
1116	3696
1117	3591
1118	3598
1119	3745
1120	3666
1121	3660
1122	3492
1123	3541
1124	3547
1125	3516
1126	3446
1127	3506
1128	3491
1129	3450
1130	3533
1131	3473
1132	3326
1133	3370
1134	3349
1135	3372
1136	3397
1137	3433
1138	3387
1139	3392
1140	3377
1141	3257
1142	3343
1143	3322
1144	3320
1145	3290
1146	3346
1147	3226
1148	3242
1149	3206
1150	3248
1151	3296
1152	3261
1153	3224
1154	3221
1155	3139
1156	3162
1157	3051
1158	3132
1159	3175
1160	3201
1161	3115
1162	3137
1163	3059
1164	3017
1165	3137
1166	3129
1167	2999
1168	2988
1169	3037
1170	3152
1171	3018
1172	3013
1173	3033
1174	2909
1175	3017
1176	2954
1177	2932
1178	2955
1179	2908
1180	2944
1181	2961
1182	2997
1183	2977
1184	2886
1185	2870
1186	2734
1187	2835
1188	2826
1189	2807
1190	2897
1191	2878
1192	2805
1193	2761
1194	2781
1195	2855
1196	2833
1197	2728
1198	2719
1199	2698
1200	2735
1201	2745
1202	2667
1203	2728
1204	2653
1205	2741
1206	2645
1207	2607
1208	2588
1209	2695
1210	2746
1211	2643
1212	2646
1213	2701
1214	2547
1215	2654
1216	2571
1217	2611
1218	2477
1219	2669
1220	2465
1221	2612
1222	2520
1223	2476
1224	2496
1225	2450
1226	2440
1227	2598
1228	2484
1229	2412
1230	2514
1231	2450
1232	2373
1233	2460
1234	2458
1235	2365
1236	2445
1237	2361
1238	2425
1239	2340
1240	2374
1241	2300
1242	2345
1243	2338
1244	2312
1245	2336
1246	2425
1247	2248
1248	2292
1249	2221
1250	2207
1251	2301
1252	2209
1253	2248
1254	2199
1255	2243
1256	2237
1257	2192
1258	2257
1259	2124
1260	2161
1261	2239
1262	2254
1263	2192
1264	2099
1265	2148
1266	2183
1267	2077
1268	2146
1269	2148
1270	2089
1271	2103
1272	2180
1273	2131
1274	2124
1275	2067
1276	2091
1277	2084
1278	2059
1279	2047
1280	2069
1281	2042
1282	1996
1283	2038
1284	2025
1285	2025
1286	2081
1287	1993
1288	1977
1289	2041
1290	2010
1291	2018
1292	1894
1293	1943
1294	1955
1295	1974
1296	1979
1297	1961
1298	1918
1299	1936
1300	1901
1301	1857
1302	1888
1303	1880
1304	1875
1305	1948
1306	1868
1307	1896
1308	1796
1309	1900
1310	1796
1311	1946
1312	1916
1313	1968
1314	1843
1315	1810
1316	1775
1317	1861
1318	1803
1319	1783
1320	1816
1321	1778
1322	1694
1323	1781
1324	1791
1325	1784
1326	1733
1327	1770
1328	1730
1329	1769
1330	1724
1331	1736
1332	1681
1333	1660
1334	1713
1335	1717
1336	1711
1337	1689
1338	1722
1339	1612
1340	1705
1341	1703
1342	1621
1343	1639
1344	1694
1345	1638
1346	1581
1347	1591
1348	1620
1349	1658
1350	1651
1351	1572
1352	1586
1353	1513
1354	1592
1355	1609
1356	1569
1357	1514
1358	1584
1359	1557
1360	1555
1361	1547
1362	1541
1363	1480
1364	1585
1365	1537
1366	1533
1367	1538
1368	1455
1369	1512
1370	1483
1371	1507
1372	1464
1373	1532
1374	1446
1375	1469
1376	1504
1377	1433
1378	1431
1379	1410
1380	1391
1381	1397
1382	1443
1383	1413
1384	1467
1385	1411
1386	1396
1387	1441
1388	1395
1389	1411
1390	1440
1391	1406
1392	1434
1393	1448
1394	1397
1395	1370
1396	1341
1397	1303
1398	1374
1399	1375
1400	1384
1401	1374
1402	1388
1403	1352
1404	1309
1405	1367
1406	1368
1407	1359
1408	1264
1409	1285
1410	1288
1411	1285
1412	1345
1413	1306
1414	1227
1415	1229
1416	1219
1417	1348
1418	1273
1419	1208
1420	1289
1421	1253
1422	1286
1423	1134
1424	1255
1425	1267
1426	1228
1427	1210
1428	1203
1429	1206
1430	1195
1431	1240
1432	1195
1433	1209
1434	1153
1435	1149
1436	1241
1437	1244
1438	1110
1439	1226
1440	1125
1441	1218
1442	1149
1443	1176
1444	1170
1445	1199
1446	1146
1447	1204
1448	1123
1449	1150
1450	1204
1451	1159
1452	1073
1453	1093
1454	1183
1455	1081
1456	1109
1457	1131
1458	1059
1459	1106
1460	1152
1461	1097
1462	1148
1463	1117
1464	1017
1465	1020
1466	1130
1467	1025
1468	1082
1469	1071
1470	1080
1471	1015
1472	1106
1473	1017
1474	1049
1475	1027
1476	1064
1477	982
1478	1021
1479	1005
1480	1021
1481	997
1482	979
1483	999
1484	1010
1485	1027
1486	1012
1487	982
1488	968
1489	963
1490	986
1491	1001
1492	985
1493	985
1494	962
1495	982
1496	959
1497	1041
1498	971
1499	990
1500	913
1501	950
1502	994
1503	989
1504	951
1505	968
1506	911
1507	931
1508	965
1509	938
1510	894
1511	951
1512	927
1513	955
1514	877
1515	884
1516	927
1517	877
1518	884
1519	907
1520	851
1521	893
1522	872
1523	910
1524	899
1525	840
1526	889
1527	854
1528	835
1529	849
1530	885
1531	891
1532	900
1533	843
1534	860
1535	858
1536	802
1537	843
1538	831
1539	848
1540	818
1541	843
1542	882
1543	882
1544	816
1545	829
1546	806
1547	839
1548	822
1549	814
1550	790
1551	770
1552	770
1553	774
1554	797
1555	767
1556	760
1557	805
1558	786
1559	787
1560	758
1561	842
1562	788
1563	759
1564	812
1565	723
1566	716
1567	743
1568	741
1569	780
1570	724
1571	707
1572	725
1573	747
1574	714
1575	732
1576	687
1577	747
1578	771
1579	734
1580	737
1581	710
1582	676
1583	706
1584	776
1585	704
1586	771
1587	744
1588	749
1589	738
1590	744
1591	676
1592	722
1593	687
1594	735
1595	674
1596	718
1597	697
1598	686
1599	694
1600	686
1601	695
1602	691
1603	648
1604	615
1605	652
1606	673
1607	673
1608	672
1609	662
1610	688
1611	638
1612	673
1613	648
1614	683
1615	676
1616	656
1617	644
1618	640
1619	657
1620	621
1621	565
1622	636
1623	616
1624	631
1625	632
1626	682
1627	598
1628	599
1629	621
1630	596
1631	611
1632	616
1633	616
1634	613
1635	628
1636	616
1637	612
1638	571
1639	589
1640	563
1641	597
1642	605
1643	581
1644	563
1645	598
1646	588
1647	561
1648	609
1649	538
1650	571
1651	569
1652	606
1653	590
1654	569
1655	546
1656	586
1657	554
1658	572
1659	583
1660	547
1661	586
1662	530
1663	548
1664	577
1665	563
1666	520
1667	579
1668	519
1669	524
1670	510
1671	512
1672	555
1673	559
1674	536
1675	521
1676	522
1677	547
1678	507
1679	545
1680	547
1681	537
1682	514
1683	515
1684	499
1685	548
1686	487
1687	510
1688	498
1689	497
1690	530
1691	530
1692	494
1693	566
1694	508
1695	537
1696	437
1697	467
1698	534
1699	489
1700	481
1701	499
1702	470
1703	516
1704	472
1705	510
1706	475
1707	489
1708	500
1709	468
1710	468
1711	456
1712	490
1713	471
1714	493
1715	461
1716	423
1717	462
1718	482
1719	470
1720	477
1721	423
1722	459
1723	427
1724	424
1725	481
1726	493
1727	458
1728	449
1729	464
1730	452
1731	503
1732	445
1733	434
1734	438
1735	452
1736	425
1737	479
1738	424
1739	428
1740	455
1741	435
1742	418
1743	430
1744	462
1745	409
1746	440
1747	395
1748	417
1749	436
1750	423
1751	359
1752	437
1753	378
1754	434
1755	407
1756	397
1757	385
1758	385
1759	420
1760	399
1761	403
1762	388
1763	379
1764	391
1765	404
1766	423
1767	411
1768	341
1769	391
1770	384
1771	378
1772	402
1773	368
1774	399
1775	386
1776	389
1777	378
1778	382
1779	371
1780	377
1781	399
1782	354
1783	366
1784	382
1785	356
1786	385
1787	338
1788	381
1789	378
1790	338
1791	326
1792	342
1793	359
1794	357
1795	351
1796	375
1797	318
1798	332
1799	359
1800	331
1801	361
1802	361
1803	373
1804	340
1805	344
1806	376
1807	351
1808	344
1809	341
1810	313
1811	340
1812	326
1813	349
1814	338
1815	351
1816	344
1817	357
1818	372
1819	340
1820	324
1821	305
1822	324
1823	310
1824	352
1825	284
1826	327
1827	366
1828	313
1829	324
1830	330
1831	337
1832	310
1833	273
1834	304
1835	328
1836	315
1837	303
1838	286
1839	338
1840	316
1841	340
1842	330
1843	292
1844	328
1845	282
1846	306
1847	333
1848	282
1849	310
1850	266
1851	292
1852	319
1853	292
1854	292
1855	336
1856	295
1857	284
1858	290
1859	293
1860	303
1861	296
1862	265
1863	284
1864	299
1865	295
1866	281
1867	267
1868	284
1869	267
1870	275
1871	293
1872	283
1873	315
1874	283
1875	293
1876	262
1877	273
1878	263
1879	251
1880	267
1881	303
1882	262
1883	280
1884	264
1885	272
1886	265
1887	269
1888	289
1889	267
1890	271
1891	257
1892	270
1893	252
1894	273
1895	277
1896	233
1897	243
1898	280
1899	254
1900	265
1901	241
1902	262
1903	260
1904	237
1905	254
1906	241
1907	212
1908	271
1909	198
1910	254
1911	240
1912	270
1913	215
1914	237
1915	239
1916	231
1917	230
1918	239
1919	225
1920	222
1921	222
1922	275
1923	233
1924	231
1925	252
1926	234
1927	251
1928	216
1929	260
1930	225
1931	249
1932	210
1933	228
1934	266
1935	221
1936	221
1937	255
1938	220
1939	219
1940	235
1941	203
1942	211
1943	224
1944	220
1945	220
1946	203
1947	214
1948	214
1949	233
1950	223
1951	195
1952	239
1953	229
1954	220
1955	231
1956	212
1957	208
1958	181
1959	203
1960	194
1961	205
1962	200
1963	207
1964	238
1965	195
1966	245
1967	197
1968	197
1969	198
1970	187
1971	211
1972	212
1973	191
1974	212
1975	219
1976	182
1977	210
1978	199
1979	183
1980	217
1981	190
1982	171
1983	218
1984	190
1985	213
1986	182
1987	233
1988	172
1989	191
1990	200
1991	202
1992	202
1993	162
1994	212
1995	169
1996	186
1997	189
1998	181
1999	167
2000	177
2001	178
2002	207
2003	190
2004	166
2005	184
2006	187
2007	173
2008	179
2009	163
2010	174
2011	199
2012	158
2013	181
2014	171
2015	181
2016	193
2017	202
2018	216
2019	162
2020	174
2021	175
2022	178
2023	170
2024	164
2025	181
2026	169
2027	172
2028	200
2029	185
2030	173
2031	160
2032	179
2033	156
2034	173
2035	159
2036	156
2037	177
2038	154
2039	162
2040	200
2041	162
2042	172
2043	178
2044	136
2045	188
2046	161
2047	203
2048	164
2049	153
2050	157
2051	148
2052	143
2053	145
2054	155
2055	164
2056	146
2057	165
2058	154
2059	148
2060	156
2061	160
2062	171
2063	189
2064	172
2065	166
2066	180
2067	167
2068	135
2069	150
2070	144
2071	164
2072	148
2073	143
2074	147
2075	156
2076	142
2077	165
2078	156
2079	167
2080	133
2081	147
2082	165
2083	146
2084	160
2085	163
2086	169
2087	131
2088	162
2089	165
2090	137
2091	149
2092	148
2093	125
2094	153
2095	152
2096	167
2097	160
2098	137
2099	177
2100	161
2101	149
2102	165
2103	143
2104	146
2105	155
2106	163
2107	147
2108	151
2109	160
2110	160
2111	142
2112	169
2113	167
2114	162
2115	151
2116	158
2117	171
2118	143
2119	171
2120	164
2121	166
2122	178
2123	138
2124	174
2125	174
2126	165
2127	167
2128	167
2129	155
2130	171
2131	154
2132	181
2133	166
2134	179
2135	188
2136	176
2137	170
2138	169
2139	162
2140	178
2141	175
2142	180
2143	186
2144	179
2145	170
2146	198
2147	184
2148	167
2149	182
2150	192
2151	203
2152	181
2153	185
2154	175
2155	194
2156	202
2157	185
2158	191
2159	195
2160	185
2161	178
2162	182
2163	171
2164	166
2165	175
2166	190
2167	197
2168	194
2169	186
2170	175
2171	179
2172	175
2173	208
2174	203
2175	191
2176	197
2177	187
2178	200
2179	190
2180	172
2181	197
2182	206
2183	188
2184	192
2185	191
2186	171
2187	192
2188	206
2189	184
2190	161
2191	226
2192	152
2193	178
2194	182
2195	176
2196	185
2197	192
2198	167
2199	185
2200	179
2201	174
2202	186
2203	197
2204	183
2205	177
2206	163
2207	167
2208	185
2209	197
2210	190
2211	154
2212	170
2213	194
2214	182
2215	181
2216	170
2217	168
2218	170
2219	182
2220	167
2221	164
2222	158
2223	156
2224	190
2225	186
2226	172
2227	193
2228	151
2229	173
2230	188
2231	154
2232	187
2233	148
2234	165
2235	151
2236	172
2237	178
2238	149
2239	162
2240	178
2241	153
2242	183
2243	171
2244	168
2245	154
2246	162
2247	153
2248	142
2249	166
2250	152
2251	144
2252	173
2253	156
2254	138
2255	190
2256	153
2257	164
2258	148
2259	161
2260	165
2261	178
2262	152
2263	155
2264	161
2265	152
2266	160
2267	148
2268	142
2269	157
2270	147
2271	170
2272	166
2273	143
2274	141
2275	156
2276	157
2277	147
2278	160
2279	169
2280	143
2281	147
2282	126
2283	155
2284	121
2285	126
2286	156
2287	151
2288	116
2289	143
2290	143
2291	145
2292	128
2293	153
2294	140
2295	143
2296	139
2297	141
2298	166
2299	174
2300	128
2301	139
2302	164
2303	133
2304	147
2305	115
2306	160
2307	131
2308	129
2309	116
2310	123
2311	146
2312	122
2313	121
2314	129
2315	138
2316	133
2317	118
2318	110
2319	142
2320	127
2321	126
2322	146
2323	129
2324	139
2325	113
2326	126
2327	159
2328	133
2329	123
2330	139
2331	105
2332	125
2333	130
2334	129
2335	116
2336	127
2337	118
2338	117
2339	135
2340	124
2341	129
2342	119
2343	118
2344	111
2345	134
2346	106
2347	144
2348	126
2349	114
2350	129
2351	130
2352	129
2353	121
2354	109
2355	120
2356	104
2357	115
2358	117
2359	129
2360	112
2361	116
2362	111
2363	102
2364	127
2365	113
2366	120
2367	115
2368	124
2369	114
2370	112
2371	102
2372	106
2373	105
2374	117
2375	114
2376	129
2377	107
2378	122
2379	125
2380	133
2381	113
2382	115
2383	125
2384	110
2385	120
2386	124
2387	136
2388	98
2389	126
2390	117
2391	116
2392	100
2393	112
2394	120
2395	123
2396	118
2397	97
2398	103
2399	112
2400	96
2401	130
2402	107
2403	132
2404	112
2405	103
2406	112
2407	104
2408	104
2409	101
2410	107
2411	106
2412	112
2413	102
2414	115
2415	105
2416	105
2417	108
2418	119
2419	102
2420	95
2421	99
2422	101
2423	116
2424	98
2425	92
2426	103
2427	89
2428	99
2429	108
2430	97
2431	112
2432	107
2433	100
2434	125
2435	106
2436	103
2437	124
2438	104
2439	117
2440	89
2441	97
2442	122
2443	102
2444	104
2445	104
2446	98
2447	108
2448	97
2449	106
2450	95
2451	100
2452	96
2453	93
2454	98
2455	88
2456	123
2457	101
2458	92
2459	101
2460	99
2461	105
2462	99
2463	108
2464	100
2465	92
2466	101
2467	117
2468	106
2469	94
2470	79
2471	102
2472	86
2473	108
2474	84
2475	111
2476	99
2477	109
2478	104
2479	112
2480	93
2481	97
2482	96
2483	107
2484	100
2485	103
2486	95
2487	104
2488	109
2489	83
2490	112
2491	83
2492	80
2493	86
2494	106
2495	84
2496	91
2497	93
2498	95
2499	105
2500	83
2501	92
2502	100
2503	92
2504	112
2505	92
2506	98
2507	100
2508	103
2509	90
2510	116
2511	83
2512	108
2513	96
2514	100
2515	98
2516	100
2517	100
2518	88
2519	89
2520	84
2521	92
2522	80
2523	103
2524	95
2525	92
2526	108
2527	87
2528	89
2529	103
2530	82
2531	92
2532	89
2533	90
2534	87
2535	92
2536	101
2537	91
2538	85
2539	83
2540	85
2541	92
2542	92
2543	85
2544	100
2545	80
2546	78
2547	97
2548	93
2549	81
2550	99
2551	102
2552	88
2553	92
2554	95
2555	93
2556	88
2557	93
2558	88
2559	100
2560	86
2561	90
2562	96
2563	89
2564	79
2565	80
2566	85
2567	83
2568	85
2569	96
2570	95
2571	68
2572	82
2573	84
2574	97
2575	83
2576	93
2577	87
2578	103
2579	94
2580	77
2581	76
2582	77
2583	94
2584	92
2585	91
2586	84
2587	101
2588	91
2589	68
2590	103
2591	83
2592	87
2593	74
2594	81
2595	81
2596	85
2597	93
2598	79
2599	84
2600	82
2601	86
2602	78
2603	82
2604	88
2605	76
2606	81
2607	102
2608	92
2609	89
2610	84
2611	86
2612	93
2613	91
2614	94
2615	81
2616	79
2617	80
2618	61
2619	95
2620	87
2621	88
2622	73
2623	82
2624	86
2625	76
2626	70
2627	83
2628	87
2629	63
2630	84
2631	72
2632	84
2633	67
2634	92
2635	76
2636	81
2637	81
2638	94
2639	86
2640	76
2641	74
2642	79
2643	77
2644	83
2645	61
2646	92
2647	75
2648	87
2649	70
2650	69
2651	86
2652	74
2653	67
2654	79
2655	72
2656	73
2657	70
2658	81
2659	73
2660	56
2661	67
2662	80
2663	82
2664	71
2665	76
2666	80
2667	58
2668	67
2669	73
2670	77
2671	83
2672	86
2673	69
2674	64
2675	71
2676	75
2677	95
2678	76
2679	58
2680	64
2681	77
2682	67
2683	84
2684	60
2685	75
2686	77
2687	77
2688	77
2689	55
2690	52
2691	79
2692	76
2693	72
2694	58
2695	71
2696	62
2697	63
2698	79
2699	68
2700	65
2701	57
2702	69
2703	67
2704	68
2705	57
2706	74
2707	72
2708	50
2709	65
2710	64
2711	55
2712	79
2713	65
2714	64
2715	65
2716	73
2717	74
2718	62
2719	73
2720	84
2721	66
2722	60
2723	55
2724	57
2725	74
2726	72
2727	80
2728	67
2729	65
2730	78
2731	54
2732	56
2733	60
2734	48
2735	65
2736	55
2737	70
2738	54
2739	69
2740	58
2741	56
2742	66
2743	58
2744	74
2745	50
2746	58
2747	66
2748	64
2749	71
2750	53
2751	63
2752	78
2753	55
2754	65
2755	57
2756	63
2757	56
2758	59
2759	44
2760	67
2761	55
2762	79
2763	64
2764	49
2765	63
2766	57
2767	62
2768	48
2769	60
2770	70
2771	73
2772	49
2773	52
2774	56
2775	71
2776	62
2777	57
2778	67
2779	62
2780	62
2781	49
2782	49
2783	62
2784	64
2785	58
2786	53
2787	51
2788	68
2789	63
2790	66
2791	54
2792	54
2793	58
2794	49
2795	53
2796	58
2797	57
2798	47
2799	65
2800	66
2801	66
2802	48
2803	59
2804	47
2805	41
2806	44
2807	56
2808	54
2809	64
2810	47
2811	62
2812	73
2813	38
2814	64
2815	60
2816	51
2817	56
2818	59
2819	57
2820	68
2821	51
2822	44
2823	60
2824	50
2825	56
2826	52
2827	43
2828	56
2829	64
2830	66
2831	41
2832	56
2833	51
2834	49
2835	69
2836	50
2837	50
2838	66
2839	61
2840	56
2841	58
2842	50
2843	42
2844	51
2845	50
2846	56
2847	49
2848	48
2849	63
2850	49
2851	46
2852	44
2853	37
2854	48
2855	44
2856	49
2857	39
2858	45
2859	50
2860	51
2861	36
2862	42
2863	60
2864	50
2865	41
2866	54
2867	46
2868	54
2869	47
2870	39
2871	56
2872	49
2873	50
2874	51
2875	34
2876	39
2877	48
2878	57
2879	44
2880	38
2881	50
2882	60
2883	41
2884	55
2885	45
2886	49
2887	43
2888	43
2889	48
2890	49
2891	44
2892	44
2893	60
2894	43
2895	51
2896	43
2897	48
2898	52
2899	46
2900	54
2901	54
2902	40
2903	51
2904	60
2905	45
2906	47
2907	43
2908	48
2909	43
2910	52
2911	47
2912	49
2913	46
2914	37
2915	49
2916	53
2917	47
2918	55
2919	44
2920	32
2921	41
2922	39
2923	46
2924	35
2925	48
2926	37
2927	35
2928	34
2929	53
2930	46
2931	52
2932	53
2933	52
2934	47
2935	32
2936	42
2937	54
2938	45
2939	41
2940	46
2941	42
2942	58
2943	41
2944	46
2945	46
2946	30
2947	51
2948	35
2949	36
2950	39
2951	43
2952	39
2953	39
2954	46
2955	38
2956	37
2957	38
2958	34
2959	32
2960	38
2961	35
2962	42
2963	46
2964	44
2965	35
2966	34
2967	47
2968	36
2969	37
2970	30
2971	47
2972	40
2973	47
2974	46
2975	29
2976	38
2977	52
2978	42
2979	44
2980	45
2981	23
2982	40
2983	27
2984	54
2985	41
2986	42
2987	25
2988	44
2989	38
2990	37
2991	40
2992	35
2993	45
2994	44
2995	44
2996	40
2997	36
2998	23
2999	36
3000	25
3001	37
3002	33
3003	36
3004	29
3005	43
3006	48
3007	28
3008	34
3009	33
3010	38
3011	39
3012	49
3013	44
3014	34
3015	36
3016	42
3017	29
3018	39
3019	44
3020	51
3021	34
3022	30
3023	26
3024	30
3025	42
3026	36
3027	36
3028	35
3029	42
3030	39
3031	45
3032	52
3033	42
3034	42
3035	32
3036	36
3037	29
3038	36
3039	45
3040	37
3041	39
3042	31
3043	38
3044	23
3045	34
3046	27
3047	35
3048	33
3049	23
3050	42
3051	30
3052	31
3053	30
3054	31
3055	36
3056	38
3057	31
3058	36
3059	34
3060	45
3061	26
3062	51
3063	29
3064	34
3065	27
3066	39
3067	35
3068	31
3069	31
3070	36
3071	43
3072	33
3073	32
3074	42
3075	35
3076	31
3077	29
3078	34
3079	32
3080	26
3081	38
3082	39
3083	21
3084	34
3085	36
3086	31
3087	32
3088	29
3089	38
3090	33
3091	31
3092	38
3093	26
3094	38
3095	34
3096	37
3097	28
3098	32
3099	29
3100	42
3101	41
3102	34
3103	33
3104	27
3105	43
3106	26
3107	18
3108	21
3109	30
3110	30
3111	31
3112	30
3113	36
3114	26
3115	40
3116	27
3117	36
3118	25
3119	30
3120	47
3121	19
3122	37
3123	32
3124	45
3125	31
3126	41
3127	30
3128	29
3129	34
3130	32
3131	29
3132	28
3133	25
3134	35
3135	40
3136	34
3137	21
3138	33
3139	26
3140	35
3141	27
3142	34
3143	30
3144	39
3145	31
3146	35
3147	30
3148	30
3149	21
3150	22
3151	26
3152	32
3153	29
3154	36
3155	29
3156	25
3157	33
3158	29
3159	28
3160	36
3161	29
3162	29
3163	35
3164	30
3165	33
3166	30
3167	29
3168	23
3169	28
3170	27
3171	35
3172	32
3173	25
3174	27
3175	20
3176	17
3177	23
3178	27
3179	35
3180	30
3181	11
3182	33
3183	36
3184	36
3185	28
3186	18
3187	32
3188	33
3189	20
3190	21
3191	24
3192	24
3193	30
3194	29
3195	31
3196	26
3197	34
3198	27
3199	32
3200	27
3201	31
3202	21
3203	41
3204	21
3205	21
3206	27
3207	27
3208	28
3209	25
3210	18
3211	22
3212	31
3213	23
3214	33
3215	27
3216	18
3217	23
3218	36
3219	19
3220	30
3221	20
3222	16
3223	27
3224	25
3225	20
3226	27
3227	26
3228	23
3229	25
3230	27
3231	38
3232	24
3233	24
3234	21
3235	30
3236	28
3237	27
3238	20
3239	24
3240	23
3241	25
3242	23
3243	21
3244	26
3245	28
3246	29
3247	30
3248	20
3249	29
3250	18
3251	20
3252	23
3253	25
3254	20
3255	23
3256	23
3257	26
3258	23
3259	32
3260	29
3261	28
3262	22
3263	24
3264	14
3265	29
3266	20
3267	28
3268	26
3269	29
3270	19
3271	16
3272	41
3273	29
3274	23
3275	19
3276	17
3277	31
3278	23
3279	20
3280	27
3281	30
3282	23
3283	26
3284	19
3285	21
3286	19
3287	33
3288	19
3289	15
3290	23
3291	23
3292	28
3293	31
3294	24
3295	26
3296	26
3297	22
3298	31
3299	28
3300	34
3301	25
3302	20
3303	28
3304	15
3305	22
3306	13
3307	17
3308	15
3309	20
3310	23
3311	31
3312	21
3313	25
3314	29
3315	23
3316	30
3317	19
3318	20
3319	30
3320	18
3321	25
3322	19
3323	23
3324	25
3325	29
3326	14
3327	19
3328	31
3329	36
3330	29
3331	21
3332	17
3333	25
3334	18
3335	28
3336	11
3337	25
3338	23
3339	20
3340	18
3341	21
3342	28
3343	21
3344	29
3345	24
3346	21
3347	24
3348	22
3349	27
3350	16
3351	27
3352	22
3353	22
3354	24
3355	31
3356	16
3357	26
3358	21
3359	19
3360	21
3361	20
3362	15
3363	25
3364	20
3365	21
3366	16
3367	14
3368	29
3369	18
3370	20
3371	19
3372	25
3373	29
3374	19
3375	24
3376	23
3377	16
3378	26
3379	29
3380	31
3381	22
3382	21
3383	26
3384	19
3385	20
3386	15
3387	34
3388	19
3389	33
3390	18
3391	21
3392	22
3393	22
3394	28
3395	21
3396	21
3397	16
3398	24
3399	14
3400	17
3401	23
3402	28
3403	17
3404	21
3405	21
3406	16
3407	20
3408	23
3409	18
3410	17
3411	25
3412	22
3413	21
3414	20
3415	23
3416	23
3417	20
3418	25
3419	22
3420	21
3421	17
3422	21
3423	28
3424	25
3425	22
3426	18
3427	20
3428	17
3429	25
3430	22
3431	20
3432	25
3433	13
3434	38
3435	20
3436	16
3437	20
3438	21
3439	29
3440	19
3441	20
3442	32
3443	28
3444	22
3445	28
3446	14
3447	15
3448	16
3449	14
3450	13
3451	14
3452	24
3453	17
3454	21
3455	24
3456	14
3457	23
3458	23
3459	11
3460	18
3461	27
3462	14
3463	26
3464	21
3465	25
3466	26
3467	23
3468	16
3469	22
3470	16
3471	22
3472	19
3473	31
3474	24
3475	26
3476	22
3477	32
3478	21
3479	15
3480	13
3481	22
3482	23
3483	19
3484	16
3485	24
3486	15
3487	20
3488	10
3489	24
3490	29
3491	20
3492	24
3493	21
