Item name: O:\TCSPC\RNA4WJ\110808\whitelight\Prompt.txt

Real time: 25.9
Live time: 13.08

Comment: 


Chan	Data
1	0
2	0
3	0
4	0
5	0
6	0
7	0
8	0
9	0
10	0
11	0
12	0
13	0
14	0
15	0
16	0
17	0
18	0
19	0
20	0
21	0
22	0
23	0
24	0
25	0
26	0
27	0
28	0
29	0
30	0
31	0
32	0
33	0
34	0
35	0
36	0
37	0
38	0
39	0
40	0
41	0
42	0
43	0
44	0
45	0
46	0
47	0
48	0
49	0
50	0
51	0
52	0
53	0
54	0
55	0
56	0
57	0
58	0
59	0
60	0
61	0
62	0
63	0
64	0
65	0
66	0
67	0
68	0
69	0
70	0
71	0
72	0
73	0
74	0
75	0
76	0
77	0
78	0
79	0
80	0
81	0
82	0
83	0
84	0
85	0
86	0
87	0
88	0
89	0
90	0
91	0
92	0
93	0
94	0
95	0
96	0
97	0
98	0
99	0
100	0
101	0
102	0
103	2
104	1
105	1
106	1
107	1
108	0
109	0
110	0
111	0
112	0
113	1
114	1
115	0
116	0
117	0
118	1
119	0
120	0
121	1
122	1
123	2
124	1
125	0
126	2
127	1
128	1
129	0
130	4
131	0
132	1
133	2
134	0
135	1
136	1
137	2
138	6
139	2
140	1
141	0
142	2
143	1
144	0
145	0
146	2
147	1
148	1
149	0
150	2
151	0
152	1
153	0
154	0
155	2
156	2
157	1
158	0
159	1
160	1
161	1
162	2
163	0
164	2
165	1
166	1
167	1
168	0
169	4
170	1
171	1
172	1
173	0
174	1
175	2
176	0
177	0
178	0
179	0
180	1
181	2
182	1
183	0
184	5
185	1
186	1
187	2
188	0
189	2
190	1
191	1
192	2
193	0
194	2
195	1
196	1
197	1
198	0
199	0
200	0
201	0
202	0
203	0
204	1
205	0
206	1
207	2
208	0
209	0
210	1
211	1
212	1
213	0
214	1
215	0
216	2
217	0
218	1
219	1
220	0
221	0
222	1
223	0
224	0
225	1
226	0
227	2
228	3
229	2
230	1
231	1
232	0
233	1
234	1
235	0
236	0
237	2
238	1
239	1
240	0
241	1
242	0
243	0
244	0
245	2
246	2
247	2
248	0
249	0
250	1
251	1
252	1
253	0
254	1
255	1
256	2
257	1
258	0
259	0
260	1
261	1
262	1
263	0
264	0
265	4
266	1
267	0
268	0
269	0
270	0
271	0
272	0
273	0
274	0
275	1
276	1
277	0
278	0
279	1
280	0
281	0
282	0
283	0
284	1
285	1
286	0
287	1
288	0
289	2
290	0
291	1
292	0
293	1
294	2
295	1
296	2
297	2
298	0
299	3
300	2
301	0
302	1
303	2
304	2
305	1
306	0
307	0
308	2
309	1
310	0
311	1
312	0
313	3
314	1
315	2
316	2
317	0
318	2
319	0
320	2
321	0
322	0
323	2
324	1
325	1
326	0
327	1
328	1
329	0
330	0
331	1
332	0
333	3
334	0
335	1
336	0
337	4
338	3
339	0
340	0
341	2
342	4
343	2
344	0
345	1
346	0
347	3
348	0
349	0
350	2
351	1
352	1
353	1
354	1
355	1
356	1
357	1
358	3
359	3
360	0
361	0
362	0
363	1
364	1
365	1
366	0
367	0
368	1
369	3
370	0
371	1
372	2
373	1
374	1
375	1
376	0
377	3
378	0
379	1
380	1
381	1
382	0
383	1
384	2
385	2
386	0
387	0
388	1
389	0
390	0
391	0
392	1
393	1
394	2
395	2
396	1
397	1
398	1
399	3
400	0
401	0
402	0
403	0
404	0
405	1
406	1
407	4
408	0
409	0
410	4
411	1
412	1
413	0
414	1
415	0
416	3
417	0
418	0
419	2
420	0
421	2
422	2
423	3
424	1
425	1
426	1
427	1
428	3
429	2
430	1
431	0
432	0
433	3
434	4
435	4
436	0
437	4
438	1
439	1
440	0
441	1
442	1
443	0
444	0
445	1
446	0
447	0
448	3
449	0
450	0
451	0
452	0
453	0
454	0
455	1
456	3
457	0
458	3
459	0
460	1
461	0
462	1
463	1
464	1
465	0
466	0
467	3
468	3
469	2
470	1
471	0
472	0
473	1
474	2
475	0
476	3
477	6
478	3
479	5
480	3
481	6
482	4
483	9
484	12
485	13
486	14
487	28
488	29
489	33
490	40
491	37
492	52
493	50
494	78
495	85
496	105
497	140
498	154
499	204
500	253
501	346
502	377
503	525
504	607
505	859
506	1111
507	1424
508	1896
509	2400
510	3248
511	4214
512	5526
513	7059
514	8861
515	11225
516	14089
517	17096
518	20817
519	24371
520	28501
521	33169
522	37194
523	40796
524	44213
525	46733
526	49014
527	50022
528	50134
529	49150
530	48348
531	45478
532	43280
533	39424
534	36030
535	32042
536	28356
537	25232
538	22009
539	19109
540	16343
541	14042
542	11892
543	10292
544	8710
545	7424
546	6266
547	5385
548	4685
549	4214
550	3696
551	3232
552	2914
553	2632
554	2417
555	2217
556	2039
557	1844
558	1757
559	1670
560	1573
561	1478
562	1349
563	1262
564	1204
565	1095
566	1063
567	993
568	936
569	869
570	843
571	765
572	794
573	680
574	693
575	609
576	663
577	557
578	506
579	515
580	491
581	475
582	433
583	432
584	420
585	375
586	348
587	350
588	322
589	320
590	298
591	304
592	301
593	283
594	274
595	266
596	283
597	266
598	287
599	243
600	261
601	276
602	252
603	283
604	307
605	286
606	318
607	276
608	320
609	307
610	318
611	406
612	407
613	424
614	387
615	422
616	465
617	435
618	451
619	481
620	495
621	501
622	492
623	542
624	449
625	468
626	402
627	434
628	394
629	345
630	357
631	319
632	321
633	257
634	252
635	286
636	216
637	157
638	174
639	165
640	138
641	141
642	114
643	88
644	89
645	86
646	80
647	82
648	82
649	61
650	48
651	60
652	62
653	42
654	45
655	46
656	38
657	44
658	36
659	34
660	44
661	32
662	32
663	41
664	31
665	26
666	35
667	29
668	24
669	25
670	21
671	23
672	17
673	19
674	17
675	13
676	15
677	15
678	12
679	16
680	17
681	23
682	13
683	11
684	8
685	12
686	14
687	10
688	17
689	7
690	11
691	10
692	10
693	9
694	13
695	11
696	15
697	14
698	10
699	7
700	7
701	12
702	8
703	10
704	11
705	6
706	11
707	6
708	6
709	6
710	7
711	8
712	12
713	11
714	5
715	12
716	8
717	7
718	7
719	6
720	12
721	11
722	4
723	7
724	8
725	8
726	6
727	8
728	9
729	5
730	5
731	4
732	8
733	1
734	5
735	6
736	6
737	5
738	5
739	5
740	5
741	5
742	6
743	5
744	4
745	4
746	5
747	6
748	8
749	15
750	6
751	7
752	1
753	5
754	4
755	2
756	8
757	12
758	1
759	6
760	6
761	7
762	10
763	4
764	3
765	4
766	2
767	3
768	8
769	6
770	2
771	3
772	1
773	5
774	7
775	5
776	4
777	0
778	0
779	3
780	5
781	2
782	5
783	0
784	2
785	4
786	3
787	1
788	3
789	1
790	1
791	1
792	2
793	3
794	2
795	6
796	2
797	0
798	6
799	3
800	4
801	5
802	4
803	8
804	0
805	0
806	1
807	2
808	1
809	2
810	3
811	0
812	4
813	2
814	1
815	3
816	0
817	4
818	0
819	1
820	2
821	2
822	3
823	2
824	3
825	0
826	1
827	0
828	0
829	2
830	2
831	3
832	1
833	0
834	2
835	6
836	1
837	4
838	0
839	1
840	1
841	1
842	0
843	2
844	2
845	2
846	1
847	1
848	5
849	3
850	3
851	1
852	2
853	1
854	6
855	1
856	6
857	3
858	3
859	1
860	2
861	1
862	5
863	0
864	0
865	0
866	2
867	0
868	0
869	5
870	6
871	1
872	2
873	1
874	1
875	0
876	3
877	3
878	0
879	2
880	3
881	3
882	2
883	3
884	5
885	1
886	4
887	0
888	3
889	1
890	2
891	0
892	3
893	2
894	0
895	2
896	0
897	4
898	3
899	5
900	1
901	5
902	4
903	4
904	2
905	3
906	3
907	2
908	6
909	2
910	3
911	5
912	2
913	0
914	2
915	1
916	1
917	1
918	3
919	1
920	1
921	1
922	2
923	5
924	2
925	2
926	7
927	7
928	3
929	4
930	2
931	4
932	6
933	4
934	3
935	2
936	1
937	2
938	5
939	5
940	1
941	1
942	1
943	1
944	7
945	4
946	1
947	3
948	2
949	3
950	3
951	6
952	2
953	1
954	1
955	5
956	5
957	3
958	2
959	2
960	3
961	0
962	5
963	0
964	1
965	3
966	6
967	5
968	2
969	1
970	0
971	2
972	7
973	3
974	2
975	6
976	4
977	5
978	6
979	3
980	5
981	7
982	8
983	3
984	2
985	3
986	1
987	2
988	2
989	4
990	9
991	4
992	3
993	6
994	1
995	4
996	4
997	4
998	4
999	7
1000	2
1001	4
1002	1
1003	3
1004	4
1005	4
1006	2
1007	5
1008	1
1009	8
1010	1
1011	3
1012	5
1013	3
1014	1
1015	2
1016	4
1017	4
1018	4
1019	2
1020	4
1021	5
1022	7
1023	3
1024	0
1025	4
1026	2
1027	3
1028	6
1029	2
1030	3
1031	4
1032	2
1033	4
1034	4
1035	1
1036	1
1037	2
1038	3
1039	1
1040	3
1041	3
1042	0
1043	4
1044	0
1045	2
1046	5
1047	1
1048	6
1049	1
1050	1
1051	1
1052	3
1053	1
1054	7
1055	4
1056	3
1057	4
1058	3
1059	2
1060	2
1061	3
1062	4
1063	2
1064	1
1065	4
1066	0
1067	2
1068	1
1069	3
1070	1
1071	5
1072	4
1073	4
1074	4
1075	3
1076	1
1077	6
1078	1
1079	4
1080	1
1081	3
1082	0
1083	2
1084	2
1085	3
1086	2
1087	2
1088	3
1089	3
1090	2
1091	4
1092	5
1093	2
1094	1
1095	1
1096	5
1097	1
1098	2
1099	3
1100	2
1101	6
1102	3
1103	6
1104	1
1105	2
1106	4
1107	1
1108	2
1109	0
1110	2
1111	2
1112	3
1113	4
1114	0
1115	4
1116	2
1117	1
1118	4
1119	4
1120	2
1121	5
1122	3
1123	0
1124	1
1125	3
1126	2
1127	0
1128	3
1129	0
1130	1
1131	4
1132	2
1133	2
1134	1
1135	1
1136	1
1137	1
1138	5
1139	2
1140	2
1141	1
1142	3
1143	2
1144	2
1145	4
1146	1
1147	1
1148	1
1149	2
1150	2
1151	3
1152	1
1153	4
1154	2
1155	1
1156	4
1157	3
1158	2
1159	1
1160	3
1161	2
1162	0
1163	2
1164	3
1165	3
1166	0
1167	2
1168	3
1169	2
1170	1
1171	0
1172	2
1173	3
1174	2
1175	1
1176	4
1177	1
1178	3
1179	1
1180	1
1181	4
1182	0
1183	1
1184	2
1185	2
1186	1
1187	1
1188	5
1189	2
1190	0
1191	2
1192	6
1193	3
1194	4
1195	4
1196	4
1197	2
1198	3
1199	1
1200	3
1201	2
1202	2
1203	2
1204	1
1205	0
1206	5
1207	1
1208	1
1209	4
1210	3
1211	1
1212	2
1213	3
1214	1
1215	2
1216	2
1217	3
1218	4
1219	3
1220	2
1221	2
1222	3
1223	0
1224	4
1225	0
1226	1
1227	1
1228	1
1229	2
1230	1
1231	0
1232	1
1233	1
1234	2
1235	2
1236	0
1237	0
1238	4
1239	5
1240	2
1241	3
1242	2
1243	2
1244	1
1245	0
1246	4
1247	0
1248	0
1249	3
1250	1
1251	1
1252	1
1253	0
1254	0
1255	1
1256	0
1257	0
1258	3
1259	2
1260	5
1261	3
1262	2
1263	0
1264	3
1265	1
1266	2
1267	0
1268	3
1269	0
1270	0
1271	2
1272	1
1273	3
1274	1
1275	3
1276	1
1277	1
1278	1
1279	3
1280	6
1281	1
1282	1
1283	1
1284	2
1285	1
1286	2
1287	3
1288	2
1289	1
1290	0
1291	1
1292	2
1293	2
1294	3
1295	4
1296	2
1297	1
1298	1
1299	0
1300	1
1301	1
1302	2
1303	2
1304	1
1305	0
1306	0
1307	2
1308	0
1309	1
1310	1
1311	0
1312	1
1313	2
1314	0
1315	0
1316	2
1317	2
1318	0
1319	2
1320	2
1321	3
1322	0
1323	1
1324	1
1325	1
1326	1
1327	1
1328	3
1329	3
1330	1
1331	2
1332	1
1333	0
1334	1
1335	3
1336	2
1337	0
1338	2
1339	2
1340	0
1341	0
1342	0
1343	0
1344	1
1345	0
1346	3
1347	1
1348	0
1349	2
1350	0
1351	0
1352	2
1353	1
1354	1
1355	2
1356	3
1357	0
1358	2
1359	1
1360	2
1361	3
1362	2
1363	3
1364	2
1365	1
1366	0
1367	1
1368	2
1369	4
1370	2
1371	3
1372	1
1373	1
1374	0
1375	2
1376	0
1377	0
1378	0
1379	2
1380	1
1381	1
1382	2
1383	2
1384	1
1385	4
1386	2
1387	2
1388	2
1389	2
1390	0
1391	1
1392	0
1393	1
1394	0
1395	0
1396	3
1397	3
1398	0
1399	3
1400	1
1401	0
1402	2
1403	0
1404	1
1405	2
1406	5
1407	1
1408	1
1409	1
1410	0
1411	1
1412	2
1413	3
1414	1
1415	1
1416	2
1417	0
1418	0
1419	0
1420	1
1421	3
1422	1
1423	2
1424	0
1425	1
1426	0
1427	4
1428	2
1429	1
1430	3
1431	0
1432	3
1433	1
1434	1
1435	1
1436	0
1437	2
1438	1
1439	2
1440	1
1441	2
1442	1
1443	1
1444	3
1445	1
1446	3
1447	1
1448	0
1449	1
1450	3
1451	1
1452	2
1453	1
1454	1
1455	0
1456	1
1457	5
1458	0
1459	2
1460	1
1461	2
1462	1
1463	0
1464	0
1465	0
1466	2
1467	1
1468	2
1469	0
1470	0
1471	2
1472	3
1473	4
1474	1
1475	1
1476	0
1477	1
1478	4
1479	2
1480	0
1481	2
1482	0
1483	3
1484	0
1485	1
1486	1
1487	1
1488	4
1489	2
1490	0
1491	0
1492	3
1493	2
1494	3
1495	0
1496	0
1497	1
1498	2
1499	1
1500	0
1501	0
1502	0
1503	1
1504	4
1505	0
1506	2
1507	3
1508	1
1509	2
1510	2
1511	0
1512	3
1513	0
1514	1
1515	1
1516	0
1517	1
1518	2
1519	0
1520	2
1521	1
1522	1
1523	2
1524	1
1525	2
1526	1
1527	1
1528	0
1529	0
1530	1
1531	2
1532	0
1533	0
1534	1
1535	1
1536	3
1537	3
1538	0
1539	5
1540	3
1541	2
1542	4
1543	1
1544	5
1545	1
1546	4
1547	0
1548	1
1549	1
1550	0
1551	2
1552	2
1553	1
1554	0
1555	1
1556	1
1557	1
1558	1
1559	1
1560	3
1561	0
1562	3
1563	3
1564	0
1565	1
1566	0
1567	0
1568	1
1569	3
1570	3
1571	1
1572	3
1573	3
1574	1
1575	0
1576	4
1577	3
1578	0
1579	2
1580	0
1581	1
1582	0
1583	1
1584	2
1585	1
1586	2
1587	2
1588	2
1589	1
1590	2
1591	0
1592	1
1593	1
1594	1
1595	3
1596	4
1597	0
1598	1
1599	1
1600	2
1601	3
1602	3
1603	2
1604	4
1605	2
1606	0
1607	2
1608	2
1609	4
1610	0
1611	4
1612	0
1613	1
1614	1
1615	2
1616	2
1617	2
1618	0
1619	3
1620	3
1621	1
1622	1
1623	1
1624	3
1625	2
1626	0
1627	0
1628	1
1629	2
1630	1
1631	1
1632	4
1633	2
1634	7
1635	2
1636	5
1637	0
1638	1
1639	0
1640	1
1641	0
1642	0
1643	0
1644	3
1645	0
1646	1
1647	1
1648	2
1649	0
1650	2
1651	3
1652	1
1653	3
1654	0
1655	1
1656	1
1657	3
1658	2
1659	1
1660	2
1661	2
1662	2
1663	3
1664	0
1665	1
1666	2
1667	3
1668	1
1669	1
1670	2
1671	1
1672	1
1673	0
1674	1
1675	2
1676	2
1677	4
1678	1
1679	3
1680	2
1681	1
1682	1
1683	3
1684	3
1685	4
1686	0
1687	1
1688	1
1689	5
1690	2
1691	1
1692	3
1693	2
1694	0
1695	1
1696	3
1697	2
1698	3
1699	0
1700	5
1701	1
1702	2
1703	4
1704	2
1705	1
1706	1
1707	3
1708	0
1709	1
1710	2
1711	1
1712	1
1713	2
1714	3
1715	1
1716	2
1717	4
1718	1
1719	2
1720	4
1721	1
1722	2
1723	1
1724	6
1725	1
1726	4
1727	2
1728	1
1729	1
1730	2
1731	2
1732	3
1733	1
1734	1
1735	0
1736	3
1737	1
1738	0
1739	3
1740	3
1741	4
1742	2
1743	3
1744	2
1745	2
1746	3
1747	1
1748	1
1749	2
1750	3
1751	1
1752	1
1753	1
1754	2
1755	3
1756	1
1757	5
1758	1
1759	4
1760	2
1761	3
1762	4
1763	3
1764	2
1765	4
1766	2
1767	1
1768	3
1769	1
1770	2
1771	3
1772	3
1773	2
1774	2
1775	2
1776	1
1777	1
1778	1
1779	1
1780	2
1781	4
1782	2
1783	6
1784	3
1785	1
1786	2
1787	0
1788	2
1789	1
1790	1
1791	2
1792	0
1793	1
1794	0
1795	2
1796	1
1797	1
1798	1
1799	3
1800	1
1801	2
1802	2
1803	2
1804	1
1805	2
1806	4
1807	3
1808	1
1809	4
1810	1
1811	0
1812	1
1813	3
1814	2
1815	0
1816	2
1817	4
1818	2
1819	1
1820	3
1821	4
1822	1
1823	2
1824	3
1825	3
1826	1
1827	4
1828	3
1829	0
1830	1
1831	1
1832	4
1833	0
1834	2
1835	0
1836	0
1837	2
1838	3
1839	3
1840	2
1841	1
1842	3
1843	0
1844	1
1845	1
1846	0
1847	2
1848	1
1849	3
1850	2
1851	6
1852	1
1853	0
1854	1
1855	1
1856	2
1857	1
1858	1
1859	0
1860	2
1861	0
1862	1
1863	5
1864	2
1865	0
1866	1
1867	3
1868	2
1869	1
1870	2
1871	3
1872	2
1873	2
1874	2
1875	2
1876	3
1877	3
1878	1
1879	2
1880	1
1881	0
1882	1
1883	1
1884	1
1885	0
1886	3
1887	1
1888	2
1889	2
1890	2
1891	1
1892	1
1893	5
1894	4
1895	1
1896	2
1897	3
1898	2
1899	0
1900	3
1901	0
1902	1
1903	1
1904	1
1905	0
1906	1
1907	0
1908	6
1909	2
1910	1
1911	2
1912	5
1913	0
1914	5
1915	3
1916	3
1917	2
1918	1
1919	3
1920	4
1921	0
1922	1
1923	1
1924	1
1925	1
1926	1
1927	2
1928	2
1929	1
1930	3
1931	4
1932	1
1933	2
1934	3
1935	1
1936	0
1937	2
1938	2
1939	4
1940	0
1941	3
1942	1
1943	1
1944	0
1945	2
1946	1
1947	0
1948	1
1949	2
1950	0
1951	0
1952	0
1953	1
1954	1
1955	1
1956	0
1957	2
1958	2
1959	3
1960	0
1961	0
1962	0
1963	0
1964	0
1965	2
1966	2
1967	3
1968	1
1969	0
1970	1
1971	1
1972	0
1973	2
1974	0
1975	1
1976	2
1977	2
1978	3
1979	1
1980	1
1981	3
1982	0
1983	0
1984	0
1985	0
1986	0
1987	0
1988	0
1989	3
1990	1
1991	1
1992	3
1993	3
1994	3
1995	1
1996	0
1997	1
1998	1
1999	2
2000	0
2001	2
2002	3
2003	0
2004	0
2005	4
2006	1
2007	0
2008	1
2009	2
2010	2
2011	0
2012	1
2013	0
2014	2
2015	1
2016	2
2017	2
2018	2
2019	2
2020	2
2021	1
2022	1
2023	1
2024	1
2025	1
2026	0
2027	0
2028	1
2029	0
2030	2
2031	2
2032	0
2033	1
2034	4
2035	0
2036	2
2037	2
2038	2
2039	3
2040	1
2041	1
2042	1
2043	0
2044	5
2045	6
2046	1
2047	3
2048	2
2049	1
2050	2
2051	2
2052	5
2053	5
2054	2
2055	4
2056	1
2057	3
2058	4
2059	2
2060	4
2061	5
2062	4
2063	2
2064	4
2065	3
2066	5
2067	6
2068	4
2069	6
2070	2
2071	8
2072	5
2073	8
2074	5
2075	2
2076	2
2077	8
2078	6
2079	7
2080	5
2081	4
2082	8
2083	7
2084	4
2085	10
2086	6
2087	4
2088	10
2089	3
2090	12
2091	5
2092	6
2093	13
2094	8
2095	8
2096	10
2097	9
2098	8
2099	14
2100	5
2101	9
2102	10
2103	10
2104	11
2105	13
2106	16
2107	11
2108	6
2109	12
2110	12
2111	9
2112	6
2113	11
2114	9
2115	21
2116	15
2117	16
2118	17
2119	15
2120	15
2121	18
2122	18
2123	16
2124	18
2125	21
2126	17
2127	17
2128	10
2129	15
2130	19
2131	14
2132	24
2133	23
2134	14
2135	14
2136	19
2137	16
2138	16
2139	17
2140	17
2141	16
2142	17
2143	13
2144	16
2145	22
2146	14
2147	14
2148	18
2149	15
2150	21
2151	25
2152	15
2153	17
2154	25
2155	26
2156	20
2157	16
2158	19
2159	17
2160	14
2161	19
2162	20
2163	14
2164	14
2165	15
2166	11
2167	13
2168	15
2169	10
2170	16
2171	11
2172	14
2173	15
2174	24
2175	13
2176	12
2177	10
2178	13
2179	9
2180	9
2181	9
2182	14
2183	17
2184	16
2185	11
2186	16
2187	16
2188	5
2189	14
2190	9
2191	11
2192	6
2193	12
2194	11
2195	8
2196	16
2197	9
2198	7
2199	4
2200	10
2201	9
2202	13
2203	10
2204	7
2205	9
2206	12
2207	8
2208	7
2209	12
2210	16
2211	11
2212	3
2213	9
2214	10
2215	8
2216	8
2217	15
2218	13
2219	8
2220	7
2221	12
2222	10
2223	12
2224	11
2225	11
2226	7
2227	5
2228	7
2229	8
2230	8
2231	8
2232	5
2233	13
2234	9
2235	7
2236	7
2237	15
2238	5
2239	9
2240	10
2241	5
2242	10
2243	9
2244	5
2245	10
2246	5
2247	6
2248	7
2249	7
2250	8
2251	7
2252	6
2253	10
2254	5
2255	11
2256	8
2257	7
2258	7
2259	4
2260	4
2261	3
2262	8
2263	5
2264	8
2265	5
2266	9
2267	4
2268	5
2269	4
2270	1
2271	5
2272	10
2273	8
2274	9
2275	9
2276	9
2277	1
2278	10
2279	3
2280	5
2281	8
2282	11
2283	15
2284	7
2285	7
2286	9
2287	9
2288	7
2289	7
2290	7
2291	7
2292	4
2293	3
2294	5
2295	2
2296	6
2297	3
2298	5
2299	5
2300	8
2301	6
2302	4
2303	6
2304	6
2305	9
2306	7
2307	4
2308	4
2309	6
2310	8
2311	7
2312	8
2313	6
2314	3
2315	10
2316	6
2317	3
2318	2
2319	2
2320	2
2321	3
2322	6
2323	6
2324	3
2325	3
2326	10
2327	9
2328	5
2329	3
2330	6
2331	4
2332	1
2333	8
2334	3
2335	2
2336	0
2337	4
2338	10
2339	3
2340	3
2341	6
2342	4
2343	4
2344	3
2345	7
2346	3
2347	5
2348	3
2349	5
2350	3
2351	5
2352	6
2353	5
2354	7
2355	6
2356	5
2357	1
2358	4
2359	5
2360	5
2361	5
2362	8
2363	2
2364	6
2365	8
2366	2
2367	3
2368	7
2369	7
2370	2
2371	5
2372	7
2373	5
2374	4
2375	6
2376	6
2377	9
2378	7
2379	5
2380	2
2381	3
2382	6
2383	4
2384	3
2385	5
2386	4
2387	7
2388	5
2389	5
2390	6
2391	5
2392	7
2393	4
2394	4
2395	3
2396	8
2397	3
2398	6
2399	6
2400	4
2401	8
2402	1
2403	7
2404	7
2405	9
2406	5
2407	6
2408	3
2409	4
2410	4
2411	5
2412	6
2413	3
2414	4
2415	5
2416	5
2417	7
2418	3
2419	4
2420	6
2421	2
2422	3
2423	4
2424	6
2425	7
2426	5
2427	6
2428	6
2429	2
2430	6
2431	3
2432	2
2433	10
2434	8
2435	4
2436	8
2437	3
2438	4
2439	11
2440	9
2441	5
2442	2
2443	6
2444	8
2445	8
2446	7
2447	5
2448	3
2449	5
2450	7
2451	7
2452	9
2453	3
2454	6
2455	6
2456	7
2457	10
2458	6
2459	7
2460	4
2461	8
2462	1
2463	7
2464	1
2465	3
2466	7
2467	7
2468	7
2469	5
2470	6
2471	9
2472	5
2473	3
2474	5
2475	4
2476	5
2477	6
2478	5
2479	3
2480	4
2481	2
2482	7
2483	3
2484	7
2485	4
2486	1
2487	4
2488	1
2489	3
2490	10
2491	8
2492	3
2493	6
2494	6
2495	3
2496	7
2497	8
2498	4
2499	7
2500	3
2501	3
2502	4
2503	4
2504	4
2505	3
2506	7
2507	8
2508	7
2509	7
2510	7
2511	7
2512	4
2513	8
2514	8
2515	5
2516	7
2517	5
2518	5
2519	3
2520	4
2521	6
2522	4
2523	3
2524	11
2525	4
2526	7
2527	3
2528	4
2529	8
2530	2
2531	8
2532	8
2533	3
2534	5
2535	7
2536	3
2537	7
2538	9
2539	8
2540	5
2541	1
2542	5
2543	11
2544	8
2545	5
2546	6
2547	4
2548	6
2549	2
2550	12
2551	8
2552	6
2553	4
2554	5
2555	4
2556	5
2557	4
2558	4
2559	5
2560	8
2561	7
2562	3
2563	4
2564	4
2565	6
2566	4
2567	3
2568	9
2569	2
2570	12
2571	9
2572	5
2573	9
2574	8
2575	5
2576	9
2577	3
2578	7
2579	5
2580	3
2581	2
2582	4
2583	4
2584	4
2585	1
2586	2
2587	7
2588	6
2589	5
2590	5
2591	6
2592	9
2593	0
2594	9
2595	5
2596	3
2597	4
2598	4
2599	4
2600	3
2601	5
2602	4
2603	6
2604	3
2605	7
2606	5
2607	5
2608	2
2609	5
2610	5
2611	4
2612	3
2613	3
2614	5
2615	7
2616	5
2617	5
2618	8
2619	5
2620	3
2621	8
2622	5
2623	3
2624	1
2625	4
2626	4
2627	4
2628	4
2629	4
2630	5
2631	5
2632	3
2633	5
2634	10
2635	4
2636	3
2637	4
2638	4
2639	2
2640	3
2641	4
2642	4
2643	2
2644	5
2645	6
2646	5
2647	2
2648	7
2649	0
2650	4
2651	6
2652	5
2653	2
2654	3
2655	4
2656	3
2657	2
2658	3
2659	1
2660	2
2661	3
2662	3
2663	6
2664	3
2665	3
2666	2
2667	4
2668	1
2669	1
2670	2
2671	3
2672	2
2673	2
2674	2
2675	2
2676	0
2677	7
2678	2
2679	1
2680	3
2681	1
2682	4
2683	2
2684	4
2685	2
2686	5
2687	2
2688	6
2689	2
2690	4
2691	6
2692	1
2693	5
2694	7
2695	3
2696	1
2697	6
2698	1
2699	3
2700	1
2701	8
2702	5
2703	4
2704	3
2705	4
2706	2
2707	4
2708	2
2709	0
2710	1
2711	3
2712	1
2713	4
2714	7
2715	4
2716	3
2717	5
2718	1
2719	5
2720	2
2721	5
2722	3
2723	6
2724	2
2725	3
2726	6
2727	3
2728	5
2729	3
2730	3
2731	6
2732	2
2733	1
2734	2
2735	3
2736	4
2737	7
2738	2
2739	2
2740	4
2741	5
2742	4
2743	2
2744	4
2745	3
2746	4
2747	3
2748	0
2749	4
2750	0
2751	4
2752	3
2753	4
2754	5
2755	3
2756	2
2757	2
2758	3
2759	3
2760	6
2761	2
2762	1
2763	2
2764	4
2765	4
2766	1
2767	1
2768	0
2769	3
2770	1
2771	3
2772	2
2773	1
2774	3
2775	2
2776	4
2777	3
2778	2
2779	3
2780	3
2781	4
2782	0
2783	1
2784	3
2785	3
2786	5
2787	3
2788	1
2789	4
2790	1
2791	4
2792	3
2793	2
2794	1
2795	1
2796	3
2797	1
2798	1
2799	2
2800	2
2801	0
2802	5
2803	1
2804	5
2805	2
2806	2
2807	3
2808	3
2809	3
2810	1
2811	4
2812	4
2813	3
2814	4
2815	5
2816	1
2817	2
2818	5
2819	2
2820	5
2821	2
2822	2
2823	2
2824	4
2825	2
2826	1
2827	3
2828	4
2829	4
2830	4
2831	2
2832	3
2833	2
2834	2
2835	3
2836	5
2837	2
2838	7
2839	1
2840	1
2841	2
2842	2
2843	3
2844	3
2845	3
2846	4
2847	2
2848	4
2849	0
2850	2
2851	1
2852	4
2853	2
2854	3
2855	1
2856	1
2857	3
2858	3
2859	2
2860	1
2861	2
2862	1
2863	2
2864	3
2865	1
2866	4
2867	0
2868	1
2869	3
2870	3
2871	3
2872	3
2873	0
2874	3
2875	3
2876	2
2877	3
2878	3
2879	3
2880	2
2881	2
2882	2
2883	2
2884	3
2885	2
2886	1
2887	4
2888	3
2889	4
2890	0
2891	1
2892	5
2893	1
2894	1
2895	3
2896	0
2897	3
2898	4
2899	1
2900	1
2901	2
2902	2
2903	3
2904	2
2905	2
2906	2
2907	2
2908	5
2909	4
2910	1
2911	2
2912	4
2913	2
2914	4
2915	2
2916	3
2917	0
2918	2
2919	4
2920	2
2921	4
2922	1
2923	1
2924	4
2925	0
2926	0
2927	0
2928	1
2929	3
2930	2
2931	0
2932	0
2933	2
2934	4
2935	1
2936	2
2937	3
2938	2
2939	0
2940	1
2941	3
2942	3
2943	3
2944	5
2945	2
2946	2
2947	3
2948	1
2949	2
2950	0
2951	0
2952	2
2953	1
2954	3
2955	3
2956	4
2957	1
2958	1
2959	1
2960	0
2961	4
2962	3
2963	2
2964	2
2965	2
2966	1
2967	3
2968	1
2969	0
2970	1
2971	3
2972	2
2973	3
2974	0
2975	4
2976	0
2977	1
2978	3
2979	1
2980	2
2981	3
2982	4
2983	3
2984	3
2985	2
2986	1
2987	5
2988	2
2989	3
2990	2
2991	0
2992	3
2993	1
2994	1
2995	3
2996	1
2997	1
2998	1
2999	1
3000	1
3001	2
3002	0
3003	0
3004	2
3005	2
3006	0
3007	1
3008	0
3009	0
3010	3
3011	3
3012	2
3013	0
3014	2
3015	3
3016	3
3017	3
3018	2
3019	0
3020	3
3021	1
3022	2
3023	1
3024	0
3025	2
3026	0
3027	2
3028	2
3029	3
3030	3
3031	4
3032	1
3033	0
3034	3
3035	2
3036	1
3037	1
3038	3
3039	3
3040	3
3041	2
3042	5
3043	1
3044	3
3045	2
3046	1
3047	2
3048	1
3049	1
3050	2
3051	0
3052	0
3053	2
3054	0
3055	2
3056	2
3057	2
3058	1
3059	4
3060	1
3061	3
3062	0
3063	5
3064	1
3065	4
3066	2
3067	1
3068	0
3069	2
3070	0
3071	2
3072	1
3073	2
3074	2
3075	3
3076	5
3077	1
3078	1
3079	2
3080	0
3081	2
3082	2
3083	3
3084	2
3085	2
3086	1
3087	0
3088	4
3089	1
3090	0
3091	1
3092	1
3093	2
3094	1
3095	1
3096	0
3097	1
3098	0
3099	1
3100	2
3101	0
3102	1
3103	0
3104	0
3105	1
3106	4
3107	3
3108	0
3109	1
3110	1
3111	2
3112	1
3113	2
3114	0
3115	0
3116	3
3117	3
3118	1
3119	1
3120	0
3121	2
3122	3
3123	2
3124	0
3125	0
3126	2
3127	3
3128	0
3129	2
3130	1
3131	1
3132	4
3133	3
3134	0
3135	1
3136	2
3137	0
3138	1
3139	2
3140	1
3141	1
3142	1
3143	2
3144	1
3145	2
3146	3
3147	1
3148	2
3149	2
3150	3
3151	1
3152	1
3153	3
3154	1
3155	1
3156	2
3157	3
3158	3
3159	1
3160	2
3161	2
3162	1
3163	1
3164	1
3165	2
3166	0
3167	1
3168	0
3169	0
3170	1
3171	0
3172	1
3173	2
3174	1
3175	4
3176	2
3177	1
3178	1
3179	2
3180	0
3181	2
3182	0
3183	1
3184	2
3185	1
3186	1
3187	0
3188	1
3189	2
3190	0
3191	3
3192	0
3193	0
3194	2
3195	0
3196	1
3197	2
3198	1
3199	1
3200	1
3201	4
3202	0
3203	1
3204	1
3205	0
3206	0
3207	4
3208	3
3209	2
3210	2
3211	2
3212	0
3213	1
3214	2
3215	0
3216	1
3217	1
3218	0
3219	2
3220	0
3221	2
3222	1
3223	1
3224	2
3225	1
3226	1
3227	2
3228	2
3229	2
3230	2
3231	2
3232	3
3233	3
3234	1
3235	0
3236	2
3237	1
3238	1
3239	2
3240	2
3241	0
3242	3
3243	0
3244	3
3245	1
3246	1
3247	1
3248	3
3249	0
3250	1
3251	2
3252	1
3253	1
3254	2
3255	1
3256	3
3257	1
3258	2
3259	1
3260	0
3261	2
3262	1
3263	3
3264	2
3265	0
3266	1
3267	2
3268	2
3269	0
3270	1
3271	2
3272	2
3273	2
3274	0
3275	1
3276	1
3277	1
3278	1
3279	2
3280	2
3281	2
3282	0
3283	1
3284	0
3285	1
3286	0
3287	2
3288	2
3289	4
3290	1
3291	2
3292	0
3293	2
3294	0
3295	0
3296	0
3297	1
3298	3
3299	1
3300	0
3301	3
3302	0
3303	3
3304	2
3305	0
3306	1
3307	1
3308	1
3309	1
3310	2
3311	1
3312	2
3313	1
3314	1
3315	1
3316	0
3317	0
3318	1
3319	4
3320	3
3321	2
3322	5
3323	1
3324	1
3325	2
3326	2
3327	1
3328	2
3329	3
3330	1
3331	0
3332	1
3333	1
3334	1
3335	3
3336	0
3337	1
3338	0
3339	3
3340	1
3341	3
3342	1
3343	2
3344	0
3345	2
3346	2
3347	2
3348	3
3349	1
3350	0
3351	2
3352	1
3353	0
3354	1
3355	1
3356	1
3357	4
3358	2
3359	3
3360	1
3361	3
3362	1
3363	3
3364	2
3365	1
3366	2
3367	0
3368	2
3369	0
3370	2
3371	1
3372	2
3373	1
3374	2
3375	1
3376	2
3377	0
3378	1
3379	1
3380	0
3381	2
3382	0
3383	3
3384	1
3385	2
3386	1
3387	0
3388	2
3389	0
3390	1
3391	1
3392	2
3393	2
3394	2
3395	0
3396	1
3397	1
3398	1
3399	1
3400	0
3401	2
3402	0
3403	0
3404	2
3405	0
3406	1
3407	1
3408	0
3409	1
3410	0
3411	1
3412	3
3413	3
3414	1
3415	1
3416	0
3417	0
3418	0
3419	0
3420	1
3421	1
3422	2
3423	1
3424	1
3425	1
3426	0
3427	2
3428	0
3429	0
3430	1
3431	1
3432	0
3433	1
3434	2
3435	1
3436	2
3437	4
3438	0
3439	1
3440	0
3441	2
3442	1
3443	1
3444	0
3445	1
3446	0
3447	2
3448	3
3449	0
3450	1
3451	2
3452	3
3453	1
3454	2
3455	2
3456	1
3457	2
3458	1
3459	1
3460	3
3461	0
3462	3
3463	0
3464	0
3465	0
3466	1
3467	0
3468	1
3469	1
3470	2
3471	0
3472	0
3473	1
3474	1
3475	2
3476	1
3477	2
3478	2
3479	1
3480	0
3481	1
3482	0
3483	1
3484	0
3485	1
3486	0
3487	0
3488	3
3489	2
3490	0
3491	2
3492	1
3493	0
3494	1
3495	0
3496	3
3497	1
3498	2
3499	1
3500	0
3501	1
3502	2
3503	3
3504	1
3505	1
3506	3
3507	1
3508	0
3509	0
3510	1
3511	1
3512	1
3513	1
3514	0
3515	1
3516	2
3517	1
3518	1
3519	2
3520	1
3521	2
3522	3
3523	2
3524	1
3525	2
3526	0
3527	5
3528	3
3529	4
3530	3
3531	2
3532	1
3533	0
3534	0
3535	0
3536	3
3537	1
3538	0
3539	0
3540	3
3541	1
3542	0
3543	2
3544	2
3545	2
3546	1
3547	1
3548	3
3549	2
3550	0
3551	1
3552	1
3553	2
3554	1
3555	0
3556	1
3557	1
3558	4
3559	2
3560	1
3561	1
3562	1
3563	1
3564	1
3565	2
3566	1
3567	4
3568	2
3569	0
3570	0
3571	3
3572	1
3573	2
3574	1
3575	1
3576	2
3577	1
3578	3
3579	2
3580	0
3581	1
3582	2
3583	0
3584	2
3585	0
3586	4
3587	2
3588	2
3589	1
3590	0
3591	2
3592	0
3593	1
3594	4
3595	4
3596	0
3597	2
3598	0
3599	1
3600	1
3601	0
3602	0
3603	2
3604	0
3605	1
3606	1
3607	3
3608	1
3609	3
3610	0
3611	1
3612	2
3613	0
3614	0
3615	0
3616	2
3617	2
3618	4
3619	1
3620	1
3621	3
3622	2
3623	0
3624	2
3625	2
3626	1
3627	1
3628	1
3629	1
3630	0
3631	1
3632	1
3633	0
3634	1
3635	0
3636	3
3637	2
3638	0
3639	0
3640	1
3641	2
3642	1
3643	1
3644	0
3645	1
3646	2
3647	1
3648	1
3649	0
3650	2
3651	1
3652	2
3653	1
3654	1
3655	1
3656	2
3657	0
3658	1
3659	1
3660	2
3661	2
3662	0
3663	1
3664	0
3665	1
3666	1
3667	3
3668	0
3669	0
3670	1
3671	1
3672	0
3673	0
3674	3
3675	1
3676	4
3677	0
3678	1
3679	2
3680	2
3681	1
3682	1
3683	0
3684	2
3685	1
3686	0
3687	1
3688	1
3689	0
3690	1
3691	1
3692	2
3693	1
3694	1
3695	3
3696	2
3697	0
3698	1
3699	2
3700	1
3701	0
3702	1
3703	0
3704	1
3705	0
3706	2
3707	4
3708	1
3709	1
3710	1
3711	1
3712	0
3713	1
3714	3
3715	1
3716	1
3717	2
3718	0
3719	1
3720	3
3721	0
3722	1
3723	0
3724	1
3725	1
3726	0
3727	3
3728	1
3729	0
3730	1
3731	3
3732	2
3733	2
3734	1
3735	1
3736	0
3737	0
3738	0
3739	1
3740	2
3741	0
3742	0
3743	1
3744	1
3745	2
3746	0
3747	1
3748	0
3749	1
3750	2
3751	0
3752	3
3753	0
3754	1
3755	3
3756	0
3757	1
3758	1
3759	0
3760	1
3761	1
3762	1
3763	1
3764	2
3765	0
3766	1
3767	0
3768	0
3769	1
3770	1
3771	2
3772	2
3773	1
3774	0
3775	1
3776	1
3777	1
3778	1
3779	0
3780	5
3781	1
3782	3
3783	0
3784	0
3785	1
3786	0
3787	4
3788	2
3789	0
3790	0
3791	3
3792	1
3793	4
3794	1
3795	1
3796	1
3797	1
3798	1
3799	1
3800	2
3801	0
3802	2
3803	4
3804	0
3805	1
3806	0
3807	0
3808	0
3809	0
3810	2
3811	2
3812	1
3813	0
3814	0
3815	1
3816	1
3817	1
3818	1
3819	0
3820	1
3821	0
3822	1
3823	1
3824	0
3825	0
3826	3
3827	1
3828	2
3829	1
3830	0
3831	2
3832	1
3833	0
3834	1
3835	1
3836	3
3837	4
3838	3
3839	0
3840	0
3841	0
3842	1
3843	1
3844	2
3845	1
3846	2
3847	0
3848	0
3849	0
3850	0
3851	0
3852	0
3853	0
3854	0
3855	0
3856	0
3857	0
3858	0
3859	0
3860	0
3861	0
3862	0
3863	0
3864	0
3865	0
3866	0
3867	0
3868	0
3869	0
3870	0
3871	0
3872	0
3873	0
3874	0
3875	0
3876	0
3877	0
3878	0
3879	0
3880	0
3881	0
3882	0
3883	0
3884	0
3885	0
3886	0
3887	0
3888	0
3889	0
3890	0
3891	0
3892	0
3893	0
3894	0
3895	0
3896	0
3897	0
3898	0
3899	0
3900	0
3901	0
3902	0
3903	0
3904	0
3905	0
3906	0
3907	0
3908	0
3909	0
3910	0
3911	0
3912	0
3913	0
3914	0
3915	0
3916	0
3917	0
3918	0
3919	0
3920	0
3921	0
3922	0
3923	0
3924	0
3925	0
3926	0
3927	0
3928	0
3929	0
3930	0
3931	0
3932	0
3933	0
3934	0
3935	0
3936	0
3937	0
3938	0
3939	0
3940	0
3941	0
3942	0
3943	0
3944	0
3945	0
3946	0
3947	0
3948	0
3949	0
3950	0
3951	0
3952	0
3953	0
3954	0
3955	0
3956	0
3957	0
3958	0
3959	0
3960	0
3961	0
3962	0
3963	0
3964	0
3965	0
3966	0
3967	0
3968	0
3969	0
3970	0
3971	0
3972	0
3973	0
3974	0
3975	0
3976	0
3977	0
3978	0
3979	0
3980	0
3981	0
3982	0
3983	0
3984	0
3985	0
3986	0
3987	0
3988	0
3989	0
3990	0
3991	0
3992	0
3993	0
3994	0
3995	0
3996	0
3997	0
3998	0
3999	0
4000	0
4001	0
4002	0
4003	0
4004	0
4005	0
4006	0
4007	0
4008	0
4009	0
4010	0
4011	0
4012	0
4013	0
4014	0
4015	0
4016	0
4017	0
4018	0
4019	0
4020	0
4021	0
4022	0
4023	0
4024	0
4025	0
4026	0
4027	0
4028	0
4029	0
4030	0
4031	0
4032	0
4033	0
4034	0
4035	0
4036	0
4037	0
4038	0
4039	0
4040	0
4041	0
4042	0
4043	0
4044	0
4045	0
4046	0
4047	0
4048	0
4049	0
4050	0
4051	0
4052	0
4053	0
4054	0
4055	0
4056	0
4057	0
4058	0
4059	0
4060	0
4061	0
4062	0
4063	0
4064	0
4065	0
4066	0
4067	0
4068	0
4069	0
4070	0
4071	0
4072	0
4073	0
4074	0
4075	0
4076	0
4077	0
4078	0
4079	0
4080	0
4081	0
4082	0
4083	0
4084	0
4085	0
4086	0
4087	0
4088	0
4089	0
4090	0
4091	0
4092	0
4093	0
4094	0
4095	0
4096	0
