Item name: Decay VV

Real time: 60
Live time: 371.56
Time calibration: 1.408649E-02ns/ch

Comment: 


Chan	Data
1	0
2	0
3	0
4	0
5	0
6	0
7	0
8	0
9	0
10	0
11	0
12	0
13	0
14	0
15	0
16	0
17	0
18	0
19	0
20	0
21	0
22	0
23	0
24	0
25	0
26	0
27	0
28	0
29	0
30	0
31	0
32	0
33	0
34	0
35	0
36	0
37	0
38	0
39	0
40	0
41	0
42	0
43	0
44	0
45	0
46	0
47	0
48	0
49	0
50	0
51	0
52	0
53	0
54	0
55	0
56	0
57	0
58	0
59	0
60	0
61	0
62	0
63	0
64	0
65	0
66	0
67	0
68	0
69	0
70	0
71	0
72	0
73	0
74	0
75	0
76	0
77	0
78	0
79	0
80	0
81	0
82	0
83	0
84	0
85	0
86	0
87	0
88	0
89	0
90	0
91	0
92	0
93	0
94	0
95	0
96	0
97	0
98	20
99	10
100	16
101	12
102	17
103	19
104	12
105	12
106	15
107	16
108	9
109	13
110	18
111	12
112	12
113	12
114	13
115	9
116	10
117	11
118	13
119	13
120	7
121	10
122	11
123	20
124	12
125	17
126	11
127	11
128	11
129	14
130	8
131	14
132	6
133	11
134	9
135	13
136	15
137	11
138	11
139	9
140	14
141	16
142	11
143	14
144	8
145	11
146	12
147	21
148	9
149	20
150	10
151	13
152	12
153	13
154	11
155	12
156	14
157	9
158	15
159	15
160	13
161	17
162	6
163	14
164	14
165	12
166	14
167	11
168	15
169	13
170	15
171	11
172	7
173	14
174	15
175	11
176	13
177	15
178	9
179	12
180	12
181	15
182	18
183	14
184	20
185	11
186	12
187	15
188	15
189	10
190	19
191	9
192	10
193	11
194	18
195	13
196	17
197	17
198	14
199	9
200	12
201	21
202	14
203	13
204	16
205	13
206	18
207	17
208	11
209	15
210	10
211	15
212	13
213	19
214	16
215	12
216	11
217	8
218	11
219	13
220	9
221	10
222	14
223	15
224	19
225	16
226	17
227	7
228	13
229	7
230	12
231	8
232	7
233	15
234	14
235	12
236	12
237	15
238	10
239	18
240	6
241	11
242	10
243	10
244	16
245	14
246	14
247	12
248	15
249	17
250	15
251	12
252	10
253	10
254	15
255	13
256	16
257	10
258	8
259	12
260	14
261	11
262	17
263	10
264	16
265	13
266	12
267	19
268	10
269	12
270	12
271	11
272	14
273	16
274	16
275	16
276	7
277	14
278	17
279	17
280	13
281	17
282	8
283	19
284	17
285	22
286	25
287	17
288	10
289	13
290	20
291	12
292	16
293	16
294	17
295	8
296	12
297	17
298	12
299	12
300	19
301	7
302	9
303	23
304	13
305	12
306	16
307	14
308	17
309	9
310	8
311	18
312	9
313	14
314	16
315	5
316	14
317	17
318	16
319	8
320	10
321	16
322	10
323	21
324	12
325	10
326	18
327	9
328	11
329	14
330	13
331	10
332	13
333	18
334	10
335	18
336	16
337	17
338	12
339	16
340	15
341	9
342	10
343	3
344	21
345	9
346	11
347	15
348	7
349	15
350	16
351	10
352	16
353	14
354	17
355	18
356	12
357	19
358	13
359	10
360	11
361	10
362	12
363	13
364	13
365	17
366	12
367	8
368	13
369	18
370	13
371	11
372	12
373	20
374	14
375	9
376	10
377	17
378	12
379	16
380	11
381	12
382	15
383	11
384	10
385	8
386	12
387	14
388	13
389	15
390	5
391	11
392	12
393	14
394	10
395	14
396	9
397	13
398	8
399	11
400	10
401	13
402	14
403	17
404	17
405	11
406	20
407	11
408	16
409	9
410	14
411	15
412	16
413	11
414	12
415	18
416	14
417	17
418	15
419	9
420	15
421	15
422	19
423	14
424	17
425	12
426	13
427	18
428	12
429	17
430	13
431	11
432	14
433	15
434	12
435	12
436	3
437	10
438	10
439	12
440	11
441	12
442	8
443	15
444	16
445	12
446	13
447	16
448	16
449	12
450	12
451	9
452	9
453	19
454	5
455	4
456	12
457	11
458	14
459	17
460	11
461	11
462	16
463	11
464	16
465	18
466	7
467	14
468	9
469	11
470	16
471	12
472	20
473	10
474	20
475	20
476	11
477	17
478	13
479	13
480	13
481	14
482	13
483	16
484	11
485	8
486	12
487	15
488	19
489	21
490	9
491	9
492	16
493	19
494	19
495	14
496	17
497	21
498	12
499	19
500	34
501	26
502	32
503	31
504	37
505	46
506	42
507	57
508	56
509	87
510	105
511	110
512	139
513	183
514	194
515	255
516	318
517	426
518	545
519	742
520	913
521	1206
522	1454
523	2010
524	2671
525	3409
526	4354
527	5693
528	7229
529	8997
530	11600
531	13979
532	17177
533	20768
534	24312
535	28376
536	33160
537	38016
538	42616
539	47373
540	52225
541	56671
542	60903
543	65124
544	68650
545	71714
546	74631
547	77332
548	78627
549	80691
550	81546
551	82545
552	83311
553	84177
554	84248
555	84104
556	84052
557	83700
558	84119
559	83846
560	82440
561	82315
562	81929
563	81530
564	80887
565	80318
566	79722
567	79485
568	79764
569	78908
570	77872
571	77465
572	76645
573	75990
574	75260
575	75587
576	74292
577	74561
578	74213
579	73352
580	73029
581	72489
582	72042
583	71308
584	71180
585	70060
586	69887
587	69560
588	69109
589	68118
590	68006
591	67782
592	66594
593	67097
594	66513
595	65902
596	65690
597	65262
598	64566
599	63782
600	63992
601	64015
602	63308
603	62560
604	62311
605	62052
606	61507
607	61243
608	61197
609	60435
610	59928
611	59627
612	59196
613	58653
614	58896
615	58166
616	58004
617	57750
618	57769
619	56514
620	56391
621	56491
622	56337
623	55546
624	55605
625	55240
626	54684
627	54088
628	54122
629	53923
630	53867
631	53166
632	53386
633	52993
634	52493
635	52533
636	51662
637	51614
638	51222
639	51068
640	50740
641	50906
642	50312
643	49579
644	50062
645	49446
646	49306
647	49124
648	48737
649	48124
650	48253
651	48049
652	47307
653	47556
654	46930
655	46800
656	46561
657	46240
658	46272
659	45901
660	45392
661	45328
662	44974
663	44531
664	44509
665	44153
666	44381
667	43536
668	43726
669	43326
670	43494
671	43037
672	42796
673	42557
674	42093
675	42215
676	42189
677	41619
678	41305
679	41035
680	41359
681	40813
682	40612
683	40215
684	40346
685	40322
686	40071
687	39811
688	39681
689	39270
690	38958
691	39035
692	39108
693	38590
694	38168
695	38281
696	37985
697	37592
698	37611
699	37514
700	37485
701	37684
702	36867
703	37082
704	36837
705	36484
706	36678
707	36173
708	36367
709	35733
710	35214
711	35256
712	35168
713	34741
714	34405
715	34785
716	34688
717	34450
718	33940
719	34267
720	33616
721	34085
722	33888
723	33900
724	33305
725	33197
726	32744
727	33030
728	32684
729	32686
730	32509
731	32483
732	32123
733	31906
734	31740
735	32022
736	31560
737	31535
738	31253
739	31080
740	31546
741	30722
742	30624
743	30769
744	30392
745	30068
746	30412
747	30176
748	29624
749	29827
750	29837
751	29349
752	29185
753	28774
754	28706
755	28797
756	28650
757	28450
758	28414
759	28192
760	28152
761	28021
762	27838
763	27454
764	27405
765	27387
766	27105
767	27223
768	27118
769	26943
770	26773
771	26728
772	26593
773	26549
774	26633
775	26551
776	26230
777	26027
778	25927
779	25719
780	25644
781	25304
782	25686
783	25496
784	25368
785	25275
786	25163
787	25231
788	24941
789	24806
790	24605
791	24761
792	24222
793	24359
794	24492
795	24182
796	24040
797	23918
798	24060
799	23958
800	23736
801	23700
802	23430
803	23537
804	23563
805	23285
806	23200
807	23153
808	23062
809	22985
810	22935
811	22733
812	22610
813	22480
814	22566
815	22405
816	22425
817	22114
818	22314
819	22143
820	21804
821	21653
822	21896
823	21593
824	21781
825	21770
826	21412
827	21459
828	21460
829	21087
830	21106
831	20918
832	20794
833	20694
834	20765
835	20677
836	20679
837	20382
838	20313
839	20047
840	20167
841	20107
842	19932
843	19992
844	19726
845	19765
846	19828
847	19570
848	19738
849	19268
850	19350
851	19176
852	19062
853	19072
854	18834
855	18815
856	18592
857	18613
858	18625
859	18435
860	18290
861	18310
862	18613
863	17960
864	18242
865	17948
866	17796
867	17728
868	17650
869	17693
870	17714
871	17697
872	17414
873	17658
874	17205
875	16999
876	17032
877	17199
878	17067
879	17078
880	16987
881	16804
882	16613
883	16868
884	16490
885	16481
886	16108
887	16287
888	16439
889	16163
890	16290
891	16142
892	15787
893	16036
894	15830
895	15837
896	15704
897	15717
898	15516
899	15675
900	15447
901	15413
902	15201
903	15435
904	15330
905	15443
906	15168
907	15339
908	14871
909	15316
910	14713
911	14785
912	14925
913	14681
914	14710
915	14486
916	14439
917	14500
918	14478
919	14452
920	14608
921	14398
922	14274
923	13942
924	14450
925	14198
926	14039
927	14052
928	13842
929	13875
930	13642
931	13821
932	13651
933	13717
934	13697
935	13348
936	13535
937	13689
938	13291
939	13431
940	13377
941	13257
942	13245
943	13129
944	13121
945	13027
946	13005
947	12858
948	12902
949	12715
950	12730
951	12737
952	12437
953	12322
954	12454
955	12557
956	12466
957	12484
958	12204
959	12219
960	12272
961	12209
962	11949
963	11967
964	12008
965	11872
966	12022
967	11989
968	11865
969	11686
970	11564
971	11624
972	11493
973	11428
974	11350
975	11389
976	11403
977	11269
978	11386
979	11248
980	11319
981	11247
982	11186
983	11042
984	11033
985	11003
986	11003
987	10979
988	10710
989	10707
990	10861
991	10721
992	10683
993	10371
994	10559
995	10614
996	10526
997	10519
998	10448
999	10325
1000	10402
1001	10308
1002	10170
1003	10410
1004	10077
1005	10054
1006	10121
1007	10129
1008	10020
1009	9869
1010	9872
1011	9801
1012	9812
1013	9816
1014	9589
1015	9735
1016	9737
1017	9708
1018	9566
1019	9558
1020	9582
1021	9620
1022	9506
1023	9357
1024	9553
1025	9239
1026	9334
1027	9276
1028	9231
1029	9141
1030	9150
1031	8921
1032	9050
1033	9148
1034	9011
1035	8860
1036	9064
1037	9015
1038	8826
1039	8655
1040	8940
1041	8704
1042	9002
1043	8444
1044	8621
1045	8733
1046	8636
1047	8548
1048	8554
1049	8456
1050	8461
1051	8395
1052	8511
1053	8333
1054	8308
1055	8313
1056	8241
1057	8254
1058	8202
1059	8246
1060	8141
1061	8030
1062	8089
1063	7827
1064	7792
1065	7820
1066	7951
1067	7947
1068	7702
1069	7823
1070	7913
1071	7703
1072	7695
1073	7607
1074	7666
1075	7767
1076	7420
1077	7604
1078	7531
1079	7414
1080	7299
1081	7409
1082	7323
1083	7291
1084	7460
1085	7262
1086	7344
1087	7432
1088	7134
1089	7048
1090	7217
1091	7086
1092	7044
1093	6912
1094	7102
1095	7108
1096	6983
1097	6888
1098	7056
1099	7047
1100	6808
1101	6942
1102	6787
1103	6900
1104	6758
1105	6741
1106	6750
1107	6760
1108	6701
1109	6631
1110	6598
1111	6628
1112	6658
1113	6708
1114	6479
1115	6626
1116	6479
1117	6354
1118	6414
1119	6315
1120	6372
1121	6320
1122	6431
1123	6303
1124	6297
1125	6293
1126	6170
1127	6301
1128	6265
1129	6081
1130	6050
1131	6029
1132	5931
1133	5838
1134	6125
1135	6088
1136	5949
1137	5959
1138	6052
1139	5721
1140	5919
1141	5838
1142	5868
1143	5922
1144	5891
1145	5762
1146	5804
1147	5904
1148	5619
1149	5575
1150	5815
1151	5723
1152	5655
1153	5572
1154	5530
1155	5593
1156	5461
1157	5491
1158	5360
1159	5531
1160	5645
1161	5464
1162	5305
1163	5419
1164	5358
1165	5359
1166	5438
1167	5397
1168	5359
1169	5346
1170	5208
1171	5163
1172	5236
1173	5328
1174	5091
1175	5228
1176	5114
1177	5137
1178	5074
1179	5044
1180	5003
1181	4999
1182	5159
1183	4949
1184	5109
1185	5039
1186	4824
1187	4884
1188	4776
1189	4902
1190	4893
1191	4753
1192	4889
1193	4807
1194	4850
1195	4831
1196	4764
1197	4815
1198	4807
1199	4734
1200	4738
1201	4772
1202	4753
1203	4700
1204	4649
1205	4558
1206	4533
1207	4500
1208	4505
1209	4542
1210	4538
1211	4585
1212	4377
1213	4365
1214	4466
1215	4454
1216	4371
1217	4296
1218	4462
1219	4252
1220	4272
1221	4406
1222	4286
1223	4233
1224	4241
1225	4271
1226	4232
1227	4088
1228	4157
1229	4145
1230	4063
1231	4066
1232	4170
1233	4025
1234	4165
1235	4085
1236	4107
1237	4099
1238	4077
1239	4016
1240	4029
1241	4047
1242	4072
1243	4063
1244	3911
1245	4010
1246	3983
1247	3890
1248	3864
1249	3893
1250	3824
1251	3679
1252	3873
1253	3903
1254	3810
1255	3652
1256	3815
1257	3821
1258	3779
1259	3767
1260	3772
1261	3696
1262	3684
1263	3744
1264	3578
1265	3616
1266	3700
1267	3631
1268	3655
1269	3624
1270	3546
1271	3635
1272	3569
1273	3553
1274	3453
1275	3628
1276	3532
1277	3550
1278	3533
1279	3459
1280	3572
1281	3453
1282	3449
1283	3443
1284	3500
1285	3352
1286	3436
1287	3350
1288	3368
1289	3292
1290	3169
1291	3360
1292	3315
1293	3233
1294	3195
1295	3256
1296	3219
1297	3252
1298	3165
1299	3182
1300	3184
1301	3218
1302	3223
1303	3098
1304	3071
1305	3052
1306	3153
1307	3043
1308	3008
1309	3086
1310	2996
1311	3028
1312	3059
1313	3050
1314	3034
1315	2987
1316	3027
1317	2900
1318	2983
1319	2969
1320	3005
1321	2954
1322	2919
1323	2889
1324	2955
1325	2907
1326	2835
1327	2907
1328	2916
1329	2928
1330	2883
1331	2902
1332	2958
1333	2928
1334	2848
1335	2702
1336	2903
1337	2768
1338	2888
1339	2773
1340	2794
1341	2736
1342	2773
1343	2649
1344	2698
1345	2594
1346	2659
1347	2662
1348	2653
1349	2680
1350	2576
1351	2614
1352	2702
1353	2568
1354	2608
1355	2634
1356	2553
1357	2535
1358	2623
1359	2616
1360	2503
1361	2483
1362	2526
1363	2450
1364	2512
1365	2566
1366	2532
1367	2439
1368	2556
1369	2390
1370	2473
1371	2445
1372	2443
1373	2462
1374	2381
1375	2395
1376	2489
1377	2420
1378	2361
1379	2367
1380	2340
1381	2361
1382	2385
1383	2295
1384	2289
1385	2280
1386	2381
1387	2292
1388	2324
1389	2241
1390	2162
1391	2271
1392	2368
1393	2216
1394	2201
1395	2151
1396	2180
1397	2253
1398	2098
1399	2229
1400	2192
1401	2170
1402	2166
1403	2179
1404	2134
1405	2097
1406	2026
1407	2068
1408	2017
1409	2076
1410	2103
1411	2113
1412	2071
1413	2079
1414	2076
1415	2032
1416	2115
1417	1932
1418	1961
1419	1972
1420	1983
1421	1921
1422	1953
1423	2017
1424	1881
1425	1910
1426	2016
1427	1906
1428	1929
1429	1958
1430	1951
1431	1905
1432	1882
1433	1927
1434	1915
1435	1778
1436	1905
1437	1911
1438	1969
1439	1916
1440	1850
1441	1860
1442	1866
1443	1827
1444	1841
1445	1759
1446	1834
1447	1770
1448	1807
1449	1769
1450	1775
1451	1865
1452	1731
1453	1730
1454	1759
1455	1729
1456	1681
1457	1691
1458	1705
1459	1709
1460	1705
1461	1719
1462	1711
1463	1689
1464	1635
1465	1657
1466	1706
1467	1682
1468	1633
1469	1697
1470	1709
1471	1679
1472	1531
1473	1691
1474	1587
1475	1620
1476	1578
1477	1594
1478	1607
1479	1572
1480	1576
1481	1596
1482	1575
1483	1576
1484	1576
1485	1612
1486	1563
1487	1622
1488	1558
1489	1528
1490	1514
1491	1547
1492	1538
1493	1489
1494	1497
1495	1472
1496	1483
1497	1521
1498	1449
1499	1501
1500	1539
1501	1492
1502	1516
1503	1453
1504	1458
1505	1469
1506	1459
1507	1391
1508	1382
1509	1442
1510	1409
1511	1451
1512	1398
1513	1375
1514	1408
1515	1440
1516	1396
1517	1376
1518	1373
1519	1328
1520	1342
1521	1364
1522	1378
1523	1334
1524	1359
1525	1341
1526	1352
1527	1386
1528	1322
1529	1349
1530	1269
1531	1348
1532	1290
1533	1294
1534	1327
1535	1280
1536	1335
1537	1254
1538	1288
1539	1243
1540	1292
1541	1276
1542	1264
1543	1298
1544	1257
1545	1305
1546	1289
1547	1202
1548	1315
1549	1225
1550	1238
1551	1184
1552	1230
1553	1196
1554	1252
1555	1174
1556	1193
1557	1190
1558	1233
1559	1175
1560	1165
1561	1212
1562	1188
1563	1207
1564	1161
1565	1215
1566	1187
1567	1162
1568	1048
1569	1107
1570	1099
1571	1114
1572	1076
1573	1163
1574	1132
1575	1068
1576	1132
1577	1142
1578	1064
1579	1100
1580	1103
1581	1142
1582	1128
1583	1090
1584	1100
1585	1066
1586	1061
1587	1087
1588	1113
1589	1028
1590	1019
1591	1016
1592	1061
1593	1098
1594	1074
1595	1019
1596	1003
1597	1036
1598	1043
1599	983
1600	1040
1601	1029
1602	1004
1603	981
1604	1014
1605	1016
1606	993
1607	998
1608	947
1609	1016
1610	973
1611	925
1612	962
1613	992
1614	972
1615	968
1616	969
1617	928
1618	948
1619	920
1620	904
1621	1031
1622	940
1623	950
1624	990
1625	996
1626	946
1627	890
1628	942
1629	919
1630	888
1631	939
1632	909
1633	885
1634	894
1635	868
1636	926
1637	914
1638	909
1639	881
1640	880
1641	905
1642	833
1643	851
1644	831
1645	888
1646	857
1647	842
1648	829
1649	839
1650	870
1651	826
1652	898
1653	882
1654	820
1655	858
1656	824
1657	849
1658	828
1659	813
1660	826
1661	770
1662	836
1663	841
1664	803
1665	811
1666	705
1667	805
1668	765
1669	777
1670	748
1671	750
1672	746
1673	758
1674	808
1675	724
1676	785
1677	733
1678	765
1679	795
1680	749
1681	723
1682	808
1683	792
1684	755
1685	724
1686	742
1687	715
1688	748
1689	735
1690	734
1691	714
1692	690
1693	757
1694	740
1695	778
1696	699
1697	721
1698	702
1699	706
1700	653
1701	720
1702	692
1703	789
1704	733
1705	721
1706	716
1707	716
1708	696
1709	713
1710	710
1711	653
1712	700
1713	664
1714	659
1715	654
1716	684
1717	673
1718	639
1719	647
1720	676
1721	700
1722	652
1723	649
1724	630
1725	637
1726	697
1727	635
1728	673
1729	624
1730	652
1731	619
1732	620
1733	710
1734	581
1735	635
1736	676
1737	650
1738	607
1739	585
1740	623
1741	669
1742	596
1743	671
1744	609
1745	599
1746	586
1747	579
1748	613
1749	569
1750	535
1751	566
1752	608
1753	576
1754	597
1755	558
1756	586
1757	603
1758	577
1759	588
1760	532
1761	570
1762	560
1763	578
1764	580
1765	522
1766	599
1767	541
1768	550
1769	542
1770	539
1771	494
1772	518
1773	549
1774	512
1775	568
1776	517
1777	518
1778	502
1779	550
1780	525
1781	525
1782	517
1783	522
1784	563
1785	512
1786	547
1787	498
1788	503
1789	492
1790	501
1791	505
1792	493
1793	522
1794	498
1795	518
1796	515
1797	482
1798	508
1799	448
1800	498
1801	524
1802	475
1803	488
1804	454
1805	481
1806	515
1807	482
1808	482
1809	467
1810	467
1811	434
1812	435
1813	443
1814	459
1815	482
1816	470
1817	449
1818	481
1819	466
1820	486
1821	449
1822	432
1823	456
1824	451
1825	446
1826	455
1827	443
1828	437
1829	436
1830	409
1831	428
1832	412
1833	450
1834	455
1835	457
1836	417
1837	405
1838	417
1839	411
1840	414
1841	439
1842	429
1843	392
1844	421
1845	403
1846	412
1847	438
1848	407
1849	396
1850	394
1851	409
1852	414
1853	424
1854	410
1855	417
1856	400
1857	385
1858	370
1859	398
1860	393
1861	392
1862	409
1863	382
1864	368
1865	375
1866	423
1867	377
1868	400
1869	386
1870	373
1871	384
1872	337
1873	331
1874	390
1875	377
1876	387
1877	360
1878	372
1879	356
1880	375
1881	362
1882	356
1883	331
1884	371
1885	364
1886	342
1887	366
1888	382
1889	368
1890	380
1891	358
1892	350
1893	359
1894	332
1895	321
1896	369
1897	322
1898	370
1899	360
1900	339
1901	327
1902	351
1903	332
1904	330
1905	337
1906	329
1907	311
1908	358
1909	318
1910	339
1911	335
1912	355
1913	346
1914	312
1915	334
1916	303
1917	309
1918	309
1919	303
1920	355
1921	309
1922	328
1923	292
1924	328
1925	273
1926	336
1927	299
1928	316
1929	289
1930	334
1931	314
1932	318
1933	290
1934	304
1935	278
1936	268
1937	312
1938	323
1939	278
1940	315
1941	309
1942	302
1943	317
1944	300
1945	290
1946	291
1947	286
1948	286
1949	273
1950	262
1951	299
1952	262
1953	275
1954	270
1955	246
1956	292
1957	275
1958	258
1959	276
1960	267
1961	290
1962	260
1963	272
1964	279
1965	248
1966	272
1967	271
1968	271
1969	289
1970	243
1971	243
1972	275
1973	242
1974	228
1975	288
1976	270
1977	278
1978	238
1979	254
1980	242
1981	300
1982	274
1983	258
1984	230
1985	236
1986	251
1987	266
1988	275
1989	214
1990	245
1991	235
1992	252
1993	242
1994	258
1995	242
1996	273
1997	250
1998	226
1999	252
2000	231
2001	235
2002	242
2003	263
2004	227
2005	249
2006	228
2007	224
2008	250
2009	235
2010	223
2011	227
2012	218
2013	244
2014	226
2015	197
2016	258
2017	260
2018	219
2019	218
2020	214
2021	235
2022	225
2023	206
2024	214
2025	227
2026	207
2027	194
2028	234
2029	197
2030	231
2031	223
2032	209
2033	227
2034	196
2035	199
2036	213
2037	203
2038	222
2039	192
2040	226
2041	202
2042	221
2043	219
2044	217
2045	205
2046	228
2047	222
2048	192
2049	207
2050	208
2051	220
2052	187
2053	178
2054	220
2055	203
2056	192
2057	236
2058	204
2059	206
2060	209
2061	222
2062	194
2063	200
2064	204
2065	217
2066	198
2067	189
2068	189
2069	192
2070	189
2071	184
2072	178
2073	187
2074	186
2075	174
2076	183
2077	189
2078	202
2079	184
2080	230
2081	178
2082	199
2083	179
2084	198
2085	182
2086	166
2087	163
2088	178
2089	211
2090	189
2091	178
2092	203
2093	183
2094	204
2095	177
2096	189
2097	153
2098	172
2099	208
2100	184
2101	192
2102	176
2103	179
2104	200
2105	196
2106	166
2107	200
2108	181
2109	187
2110	204
2111	206
2112	167
2113	194
2114	192
2115	180
2116	192
2117	201
2118	182
2119	200
2120	186
2121	192
2122	214
2123	184
2124	199
2125	203
2126	213
2127	196
2128	205
2129	164
2130	197
2131	216
2132	210
2133	217
2134	212
2135	195
2136	196
2137	196
2138	201
2139	198
2140	179
2141	199
2142	219
2143	197
2144	226
2145	201
2146	172
2147	212
2148	196
2149	197
2150	205
2151	191
2152	199
2153	198
2154	215
2155	236
2156	204
2157	221
2158	187
2159	246
2160	217
2161	234
2162	191
2163	204
2164	189
2165	222
2166	208
2167	210
2168	227
2169	213
2170	202
2171	210
2172	235
2173	260
2174	198
2175	213
2176	206
2177	218
2178	227
2179	227
2180	242
2181	220
2182	220
2183	219
2184	208
2185	246
2186	223
2187	217
2188	240
2189	208
2190	205
2191	198
2192	233
2193	228
2194	213
2195	216
2196	191
2197	197
2198	233
2199	232
2200	219
2201	209
2202	216
2203	215
2204	226
2205	228
2206	193
2207	213
2208	217
2209	234
2210	221
2211	217
2212	213
2213	223
2214	210
2215	231
2216	196
2217	209
2218	188
2219	237
2220	232
2221	240
2222	229
2223	220
2224	205
2225	210
2226	211
2227	210
2228	227
2229	216
2230	185
2231	215
2232	229
2233	215
2234	217
2235	185
2236	201
2237	204
2238	198
2239	199
2240	245
2241	214
2242	219
2243	200
2244	186
2245	220
2246	224
2247	193
2248	220
2249	202
2250	193
2251	209
2252	214
2253	187
2254	192
2255	190
2256	219
2257	197
2258	183
2259	206
2260	199
2261	191
2262	221
2263	202
2264	202
2265	196
2266	187
2267	173
2268	203
2269	202
2270	202
2271	193
2272	207
2273	203
2274	194
2275	190
2276	208
2277	204
2278	185
2279	210
2280	210
2281	202
2282	175
2283	187
2284	200
2285	184
2286	176
2287	179
2288	165
2289	188
2290	226
2291	210
2292	167
2293	185
2294	178
2295	151
2296	160
2297	183
2298	190
2299	176
2300	206
2301	192
2302	186
2303	178
2304	194
2305	160
2306	187
2307	187
2308	197
2309	186
2310	180
2311	188
2312	168
2313	178
2314	172
2315	174
2316	191
2317	181
2318	158
2319	184
2320	200
2321	184
2322	183
2323	186
2324	189
2325	185
2326	169
2327	185
2328	195
2329	185
2330	193
2331	180
2332	196
2333	177
2334	199
2335	160
2336	150
2337	185
2338	183
2339	191
2340	155
2341	176
2342	176
2343	173
2344	162
2345	180
2346	159
2347	157
2348	170
2349	159
2350	177
2351	186
2352	163
2353	167
2354	165
2355	161
2356	149
2357	167
2358	187
2359	174
2360	166
2361	158
2362	185
2363	154
2364	159
2365	166
2366	161
2367	163
2368	187
2369	173
2370	155
2371	162
2372	171
2373	149
2374	156
2375	180
2376	146
2377	180
2378	163
2379	166
2380	144
2381	138
2382	130
2383	164
2384	146
2385	146
2386	130
2387	149
2388	136
2389	140
2390	133
2391	156
2392	173
2393	162
2394	166
2395	153
2396	153
2397	163
2398	146
2399	139
2400	141
2401	143
2402	153
2403	154
2404	148
2405	157
2406	169
2407	140
2408	141
2409	176
2410	145
2411	160
2412	149
2413	148
2414	175
2415	172
2416	143
2417	168
2418	152
2419	141
2420	136
2421	130
2422	157
2423	140
2424	166
2425	146
2426	158
2427	143
2428	148
2429	133
2430	125
2431	129
2432	146
2433	128
2434	140
2435	125
2436	149
2437	162
2438	153
2439	133
2440	143
2441	143
2442	152
2443	151
2444	137
2445	141
2446	132
2447	135
2448	158
2449	137
2450	138
2451	133
2452	160
2453	137
2454	157
2455	136
2456	128
2457	159
2458	143
2459	127
2460	123
2461	131
2462	143
2463	142
2464	130
2465	140
2466	131
2467	144
2468	145
2469	164
2470	153
2471	151
2472	127
2473	142
2474	157
2475	131
2476	111
2477	123
2478	144
2479	133
2480	129
2481	140
2482	112
2483	112
2484	109
2485	126
2486	130
2487	129
2488	154
2489	129
2490	125
2491	144
2492	109
2493	116
2494	118
2495	130
2496	147
2497	135
2498	145
2499	127
2500	149
2501	143
2502	136
2503	136
2504	133
2505	129
2506	119
2507	130
2508	135
2509	98
2510	133
2511	115
2512	132
2513	148
2514	130
2515	133
2516	117
2517	126
2518	152
2519	110
2520	123
2521	132
2522	120
2523	117
2524	140
2525	116
2526	127
2527	129
2528	120
2529	134
2530	133
2531	114
2532	117
2533	121
2534	126
2535	141
2536	133
2537	134
2538	134
2539	128
2540	138
2541	101
2542	127
2543	137
2544	134
2545	130
2546	125
2547	133
2548	131
2549	125
2550	131
2551	133
2552	135
2553	119
2554	127
2555	130
2556	129
2557	122
2558	114
2559	119
2560	122
2561	110
2562	134
2563	124
2564	124
2565	137
2566	108
2567	113
2568	108
2569	128
2570	135
2571	110
2572	110
2573	115
2574	112
2575	118
2576	128
2577	119
2578	121
2579	111
2580	134
2581	101
2582	129
2583	101
2584	114
2585	133
2586	107
2587	120
2588	124
2589	125
2590	105
2591	101
2592	110
2593	118
2594	132
2595	113
2596	108
2597	102
2598	127
2599	117
2600	101
2601	123
2602	120
2603	126
2604	114
2605	130
2606	130
2607	137
2608	113
2609	108
2610	111
2611	124
2612	110
2613	94
2614	115
2615	94
2616	91
2617	112
2618	120
2619	117
2620	101
2621	117
2622	122
2623	98
2624	117
2625	127
2626	113
2627	120
2628	101
2629	123
2630	122
2631	136
2632	98
2633	109
2634	114
2635	132
2636	91
2637	119
2638	102
2639	108
2640	124
2641	117
2642	107
2643	96
2644	101
2645	118
2646	99
2647	114
2648	92
2649	119
2650	120
2651	125
2652	128
2653	111
2654	101
2655	86
2656	95
2657	91
2658	121
2659	100
2660	112
2661	115
2662	110
2663	100
2664	119
2665	103
2666	105
2667	105
2668	94
2669	101
2670	102
2671	114
2672	104
2673	105
2674	97
2675	103
2676	101
2677	114
2678	95
2679	106
2680	102
2681	97
2682	107
2683	86
2684	89
2685	110
2686	105
2687	101
2688	101
2689	96
2690	100
2691	106
2692	103
2693	97
2694	94
2695	111
2696	115
2697	100
2698	98
2699	103
2700	111
2701	121
2702	86
2703	111
2704	97
2705	96
2706	88
2707	96
2708	92
2709	83
2710	88
2711	83
2712	83
2713	92
2714	99
2715	95
2716	87
2717	111
2718	97
2719	86
2720	92
2721	100
2722	85
2723	90
2724	94
2725	85
2726	105
2727	89
2728	98
2729	94
2730	86
2731	104
2732	87
2733	110
2734	88
2735	94
2736	93
2737	90
2738	88
2739	95
2740	110
2741	99
2742	103
2743	84
2744	91
2745	83
2746	70
2747	81
2748	94
2749	75
2750	86
2751	89
2752	78
2753	92
2754	90
2755	91
2756	87
2757	76
2758	100
2759	96
2760	77
2761	81
2762	102
2763	92
2764	81
2765	87
2766	83
2767	88
2768	84
2769	78
2770	95
2771	78
2772	99
2773	80
2774	80
2775	79
2776	83
2777	91
2778	96
2779	110
2780	83
2781	87
2782	102
2783	92
2784	82
2785	80
2786	81
2787	83
2788	89
2789	75
2790	90
2791	96
2792	88
2793	82
2794	71
2795	77
2796	83
2797	76
2798	73
2799	66
2800	85
2801	75
2802	70
2803	79
2804	88
2805	75
2806	86
2807	90
2808	65
2809	69
2810	85
2811	89
2812	94
2813	76
2814	67
2815	75
2816	63
2817	85
2818	88
2819	81
2820	89
2821	82
2822	76
2823	68
2824	57
2825	77
2826	63
2827	75
2828	78
2829	80
2830	63
2831	69
2832	71
2833	68
2834	78
2835	85
2836	68
2837	80
2838	69
2839	80
2840	79
2841	70
2842	76
2843	60
2844	67
2845	73
2846	73
2847	81
2848	84
2849	75
2850	79
2851	78
2852	71
2853	80
2854	75
2855	85
2856	63
2857	65
2858	76
2859	75
2860	72
2861	66
2862	56
2863	86
2864	65
2865	83
2866	76
2867	57
2868	75
2869	65
2870	69
2871	66
2872	69
2873	85
2874	67
2875	65
2876	70
2877	86
2878	70
2879	66
2880	72
2881	69
2882	66
2883	57
2884	51
2885	68
2886	73
2887	62
2888	63
2889	63
2890	70
2891	65
2892	76
2893	57
2894	63
2895	70
2896	67
2897	67
2898	76
2899	62
2900	61
2901	72
2902	66
2903	69
2904	57
2905	59
2906	49
2907	56
2908	68
2909	62
2910	61
2911	83
2912	64
2913	73
2914	56
2915	54
2916	51
2917	70
2918	70
2919	69
2920	58
2921	67
2922	61
2923	70
2924	66
2925	59
2926	47
2927	65
2928	67
2929	73
2930	72
2931	66
2932	60
2933	66
2934	54
2935	57
2936	58
2937	67
2938	57
2939	56
2940	71
2941	49
2942	63
2943	55
2944	55
2945	54
2946	76
2947	71
2948	49
2949	63
2950	57
2951	72
2952	55
2953	59
2954	62
2955	53
2956	58
2957	54
2958	60
2959	57
2960	50
2961	63
2962	53
2963	57
2964	58
2965	62
2966	53
2967	62
2968	75
2969	44
2970	49
2971	53
2972	56
2973	61
2974	49
2975	62
2976	53
2977	54
2978	45
2979	54
2980	60
2981	51
2982	51
2983	55
2984	51
2985	55
2986	57
2987	63
2988	67
2989	49
2990	61
2991	56
2992	45
2993	55
2994	63
2995	44
2996	65
2997	57
2998	60
2999	40
3000	50
3001	54
3002	53
3003	57
3004	46
3005	47
3006	57
3007	54
3008	56
3009	52
3010	54
3011	56
3012	61
3013	57
3014	53
3015	48
3016	46
3017	46
3018	60
3019	50
3020	41
3021	64
3022	48
3023	55
3024	55
3025	53
3026	48
3027	53
3028	48
3029	56
3030	37
3031	56
3032	59
3033	55
3034	70
3035	49
3036	56
3037	50
3038	40
3039	48
3040	57
3041	42
3042	53
3043	54
3044	50
3045	50
3046	45
3047	36
3048	55
3049	51
3050	42
3051	46
3052	44
3053	45
3054	46
3055	61
3056	53
3057	51
3058	41
3059	53
3060	53
3061	57
3062	31
3063	43
3064	49
3065	44
3066	52
3067	51
3068	54
3069	53
3070	49
3071	43
3072	41
3073	58
3074	46
3075	48
3076	47
3077	43
3078	42
3079	49
3080	38
3081	42
3082	42
3083	62
3084	36
3085	34
3086	48
3087	40
3088	53
3089	48
3090	53
3091	44
3092	41
3093	49
3094	47
3095	58
3096	59
3097	51
3098	45
3099	52
3100	53
3101	42
3102	43
3103	45
3104	50
3105	45
3106	45
3107	48
3108	45
3109	67
3110	38
3111	51
3112	45
3113	52
3114	41
3115	50
3116	41
3117	34
3118	52
3119	29
3120	31
3121	35
3122	36
3123	39
3124	39
3125	45
3126	38
3127	35
3128	33
3129	29
3130	51
3131	38
3132	34
3133	43
3134	39
3135	51
3136	38
3137	36
3138	35
3139	43
3140	44
3141	38
3142	42
3143	46
3144	41
3145	30
3146	34
3147	39
3148	41
3149	44
3150	43
3151	40
3152	39
3153	37
3154	36
3155	33
3156	30
3157	37
3158	49
3159	48
3160	44
3161	40
3162	45
3163	41
3164	37
3165	34
3166	32
3167	45
3168	43
3169	36
3170	46
3171	39
3172	36
3173	50
3174	43
3175	38
3176	27
3177	39
3178	35
3179	46
3180	37
3181	33
3182	41
3183	30
3184	43
3185	35
3186	43
3187	50
3188	40
3189	34
3190	42
3191	46
3192	32
3193	41
3194	44
3195	28
3196	43
3197	34
3198	48
3199	39
3200	36
3201	32
3202	30
3203	30
3204	33
3205	42
3206	47
3207	33
3208	26
3209	46
3210	38
3211	28
3212	34
3213	44
3214	28
3215	45
3216	37
3217	40
3218	38
3219	42
3220	34
3221	47
3222	36
3223	38
3224	39
3225	23
3226	42
3227	30
3228	45
3229	48
3230	35
3231	28
3232	50
3233	31
3234	34
3235	39
3236	37
3237	35
3238	32
3239	26
3240	27
3241	27
3242	32
3243	37
3244	35
3245	34
3246	32
3247	37
3248	41
3249	36
3250	28
3251	32
3252	30
3253	29
3254	30
3255	35
3256	34
3257	37
3258	52
3259	26
3260	38
3261	36
3262	39
3263	19
3264	44
3265	26
3266	40
3267	39
3268	30
3269	44
3270	28
3271	26
3272	28
3273	37
3274	29
3275	21
3276	40
3277	36
3278	24
3279	37
3280	36
3281	39
3282	39
3283	35
3284	33
3285	33
3286	38
3287	31
3288	40
3289	31
3290	33
3291	31
3292	24
3293	26
3294	30
3295	42
3296	34
3297	43
3298	41
3299	36
3300	33
3301	35
3302	29
3303	27
3304	38
3305	30
3306	33
3307	24
3308	33
3309	36
3310	28
3311	18
3312	44
3313	24
3314	35
3315	30
3316	26
3317	35
3318	35
3319	24
3320	42
3321	31
3322	43
3323	39
3324	24
3325	29
3326	36
3327	26
3328	38
3329	39
3330	29
3331	31
3332	28
3333	34
3334	33
3335	34
3336	31
3337	21
3338	45
3339	36
3340	34
3341	29
3342	37
3343	20
3344	32
3345	28
3346	27
3347	31
3348	26
3349	43
3350	29
3351	25
3352	29
3353	33
3354	35
3355	34
3356	19
3357	40
3358	30
3359	26
3360	31
3361	26
3362	24
3363	30
3364	28
3365	26
3366	22
3367	33
3368	39
3369	32
3370	21
3371	33
3372	21
3373	22
3374	29
3375	27
3376	30
3377	26
3378	14
3379	31
3380	34
3381	19
3382	22
3383	35
3384	34
3385	22
3386	22
3387	32
3388	43
3389	19
3390	26
3391	20
3392	29
3393	30
3394	23
3395	25
3396	19
3397	37
3398	34
3399	24
3400	23
3401	32
3402	20
3403	30
3404	30
3405	32
3406	24
3407	32
3408	25
3409	24
3410	24
3411	30
3412	27
3413	30
3414	30
3415	31
3416	20
3417	27
3418	32
3419	24
3420	25
3421	26
3422	28
3423	32
3424	24
3425	32
