Item name: Decay

Real time: 1086.08
Live time: 698.02
Time calibration: 1.408649E-02ns/ch

Comment: 


Chan	Data
1	0
2	0
3	0
4	0
5	0
6	0
7	0
8	0
9	0
10	0
11	0
12	0
13	0
14	0
15	0
16	0
17	0
18	0
19	0
20	0
21	0
22	0
23	0
24	0
25	0
26	0
27	0
28	0
29	0
30	0
31	0
32	0
33	0
34	0
35	0
36	0
37	0
38	0
39	0
40	0
41	0
42	0
43	0
44	0
45	0
46	0
47	0
48	0
49	0
50	0
51	0
52	0
53	0
54	0
55	0
56	0
57	0
58	0
59	0
60	0
61	0
62	0
63	0
64	0
65	0
66	0
67	0
68	0
69	0
70	0
71	0
72	0
73	0
74	0
75	0
76	0
77	0
78	0
79	0
80	0
81	0
82	0
83	0
84	0
85	0
86	0
87	0
88	0
89	0
90	0
91	0
92	0
93	0
94	0
95	0
96	0
97	0
98	23
99	25
100	27
101	26
102	23
103	31
104	21
105	29
106	26
107	19
108	24
109	17
110	23
111	22
112	25
113	27
114	17
115	22
116	22
117	28
118	32
119	19
120	17
121	32
122	26
123	24
124	22
125	18
126	16
127	24
128	32
129	26
130	35
131	19
132	21
133	19
134	12
135	26
136	22
137	23
138	26
139	23
140	26
141	25
142	21
143	19
144	28
145	21
146	19
147	16
148	19
149	11
150	21
151	14
152	19
153	19
154	22
155	20
156	31
157	20
158	24
159	21
160	17
161	27
162	27
163	17
164	21
165	26
166	21
167	21
168	24
169	25
170	27
171	23
172	20
173	19
174	26
175	15
176	20
177	20
178	30
179	27
180	19
181	29
182	14
183	26
184	24
185	21
186	27
187	25
188	26
189	24
190	29
191	30
192	26
193	18
194	19
195	23
196	22
197	20
198	28
199	24
200	18
201	22
202	21
203	33
204	25
205	21
206	19
207	27
208	21
209	24
210	19
211	14
212	20
213	29
214	18
215	23
216	23
217	26
218	17
219	21
220	23
221	29
222	16
223	26
224	26
225	21
226	14
227	19
228	27
229	25
230	22
231	20
232	30
233	20
234	32
235	32
236	28
237	20
238	15
239	21
240	21
241	22
242	28
243	24
244	18
245	22
246	24
247	21
248	17
249	24
250	25
251	23
252	17
253	22
254	28
255	28
256	25
257	21
258	22
259	25
260	22
261	29
262	17
263	15
264	23
265	28
266	17
267	19
268	25
269	23
270	32
271	13
272	16
273	19
274	28
275	17
276	24
277	20
278	21
279	16
280	24
281	15
282	23
283	17
284	28
285	23
286	23
287	27
288	21
289	23
290	26
291	21
292	11
293	26
294	24
295	19
296	21
297	25
298	18
299	17
300	24
301	21
302	16
303	17
304	18
305	26
306	25
307	25
308	30
309	19
310	16
311	27
312	28
313	16
314	24
315	18
316	19
317	24
318	25
319	20
320	20
321	20
322	25
323	16
324	18
325	25
326	17
327	20
328	27
329	26
330	24
331	14
332	16
333	21
334	25
335	25
336	26
337	22
338	26
339	13
340	24
341	26
342	21
343	23
344	21
345	22
346	30
347	21
348	24
349	18
350	14
351	14
352	25
353	17
354	19
355	20
356	14
357	24
358	26
359	34
360	15
361	15
362	21
363	25
364	23
365	12
366	25
367	29
368	16
369	14
370	25
371	21
372	22
373	25
374	21
375	19
376	33
377	27
378	20
379	21
380	26
381	13
382	22
383	12
384	16
385	18
386	14
387	21
388	17
389	25
390	20
391	15
392	20
393	27
394	19
395	29
396	20
397	21
398	17
399	31
400	34
401	21
402	19
403	30
404	21
405	16
406	22
407	25
408	34
409	23
410	24
411	23
412	20
413	26
414	18
415	20
416	23
417	14
418	29
419	25
420	26
421	19
422	22
423	17
424	21
425	24
426	24
427	29
428	25
429	18
430	23
431	23
432	27
433	16
434	14
435	24
436	25
437	13
438	27
439	27
440	18
441	24
442	18
443	20
444	16
445	23
446	15
447	27
448	21
449	15
450	17
451	29
452	20
453	14
454	19
455	18
456	23
457	23
458	19
459	25
460	35
461	26
462	20
463	19
464	19
465	21
466	14
467	23
468	31
469	14
470	23
471	22
472	21
473	18
474	14
475	27
476	24
477	32
478	18
479	23
480	24
481	24
482	25
483	25
484	15
485	20
486	19
487	23
488	19
489	27
490	27
491	13
492	21
493	17
494	32
495	31
496	30
497	29
498	30
499	36
500	32
501	37
502	49
503	42
504	48
505	45
506	64
507	78
508	99
509	98
510	121
511	128
512	183
513	186
514	250
515	308
516	392
517	525
518	658
519	861
520	1105
521	1479
522	1924
523	2484
524	3264
525	4172
526	5435
527	6957
528	8657
529	11028
530	13582
531	16746
532	20107
533	24353
534	28380
535	33220
536	38786
537	43712
538	48821
539	54426
540	59325
541	64332
542	69071
543	73394
544	77962
545	81174
546	84563
547	87312
548	89592
549	91415
550	93532
551	95063
552	96159
553	97144
554	97915
555	98376
556	98672
557	99197
558	99246
559	99272
560	100005
561	99810
562	99355
563	99645
564	99905
565	99127
566	99586
567	98636
568	98905
569	98653
570	98466
571	98101
572	98645
573	98119
574	97548
575	97697
576	97392
577	96896
578	97392
579	96487
580	96690
581	96122
582	95737
583	95880
584	95777
585	94673
586	94680
587	94461
588	94042
589	93613
590	94006
591	93112
592	93343
593	92705
594	92669
595	92455
596	92138
597	91944
598	92055
599	91225
600	90653
601	90108
602	90799
603	89890
604	89732
605	89343
606	88612
607	89042
608	88618
609	87882
610	88039
611	87591
612	86780
613	86620
614	86512
615	86840
616	85877
617	85774
618	85145
619	84706
620	84772
621	84750
622	84247
623	83670
624	83937
625	82793
626	83115
627	82509
628	82608
629	81893
630	81904
631	81460
632	81659
633	80842
634	80651
635	80063
636	79548
637	79773
638	79519
639	79114
640	79992
641	78610
642	78606
643	77530
644	77825
645	77303
646	76701
647	77504
648	76897
649	76349
650	76016
651	75884
652	76107
653	75106
654	75203
655	74925
656	73993
657	74331
658	73309
659	73418
660	73029
661	72478
662	73080
663	72719
664	72635
665	72332
666	71343
667	71538
668	71612
669	70547
670	70891
671	70636
672	70746
673	70316
674	69353
675	69172
676	69232
677	68823
678	68916
679	68923
680	68183
681	68289
682	67661
683	68072
684	67269
685	67256
686	66992
687	67042
688	66724
689	66057
690	65986
691	65620
692	65588
693	65297
694	64750
695	64925
696	64275
697	64417
698	64506
699	64097
700	63841
701	63550
702	63557
703	62797
704	62889
705	62690
706	62274
707	62583
708	62189
709	61975
710	61336
711	61254
712	61096
713	60868
714	60874
715	60603
716	60191
717	60212
718	59957
719	59729
720	59585
721	59198
722	58878
723	58706
724	58239
725	58409
726	58250
727	57555
728	58208
729	57213
730	57219
731	57086
732	56921
733	56575
734	56536
735	56421
736	55897
737	55551
738	55181
739	55105
740	55174
741	54893
742	54277
743	53907
744	54157
745	54396
746	54031
747	53538
748	53384
749	52867
750	53200
751	52557
752	52318
753	52125
754	51851
755	52158
756	51873
757	51592
758	51295
759	50840
760	50975
761	50329
762	50574
763	50501
764	50145
765	50001
766	49893
767	49835
768	49350
769	49277
770	49018
771	48614
772	48630
773	48583
774	48309
775	48580
776	48030
777	48146
778	47428
779	47637
780	47510
781	47097
782	46849
783	46366
784	46723
785	46448
786	46529
787	46595
788	45973
789	46345
790	46002
791	45913
792	45583
793	45566
794	45507
795	45025
796	45032
797	44652
798	44496
799	44730
800	44440
801	44206
802	44269
803	43822
804	43986
805	43521
806	43574
807	43574
808	43110
809	43150
810	43209
811	42919
812	42696
813	42690
814	42855
815	42452
816	42198
817	42069
818	42167
819	41812
820	41297
821	41501
822	41264
823	41091
824	41273
825	41040
826	40675
827	40828
828	40476
829	40551
830	40168
831	39673
832	39671
833	39549
834	39611
835	39398
836	39405
837	39023
838	38839
839	38906
840	38185
841	38669
842	38341
843	38362
844	37888
845	38052
846	37614
847	37684
848	37614
849	37174
850	36967
851	37032
852	36813
853	36928
854	36548
855	36537
856	36050
857	36206
858	36435
859	36050
860	36081
861	35271
862	35674
863	35567
864	35450
865	34972
866	35026
867	34864
868	34915
869	34850
870	34381
871	34309
872	34175
873	34165
874	34014
875	33816
876	33367
877	33497
878	33486
879	33502
880	32784
881	33294
882	33133
883	32483
884	32560
885	32239
886	32196
887	32287
888	32301
889	32113
890	32114
891	31723
892	31659
893	31870
894	31426
895	31872
896	31622
897	31502
898	31029
899	31070
900	30531
901	30732
902	30759
903	30664
904	30376
905	30678
906	30002
907	30008
908	30156
909	30105
910	30018
911	29746
912	29469
913	29661
914	29039
915	29234
916	29181
917	29104
918	29009
919	29124
920	28736
921	28371
922	28855
923	28614
924	28462
925	28406
926	28240
927	28083
928	27933
929	28354
930	27809
931	27813
932	27672
933	27732
934	27828
935	27488
936	27108
937	27151
938	27034
939	27035
940	26851
941	26781
942	26409
943	26576
944	26408
945	26443
946	26166
947	26070
948	26278
949	26079
950	26106
951	25779
952	25595
953	25532
954	25820
955	25432
956	25387
957	25416
958	25217
959	24990
960	25241
961	24804
962	24952
963	24785
964	24555
965	24341
966	24520
967	24352
968	24347
969	23928
970	23941
971	23761
972	23904
973	23861
974	23510
975	23495
976	23807
977	23425
978	23476
979	23670
980	23250
981	23133
982	22873
983	22673
984	22883
985	23005
986	22685
987	22492
988	22865
989	22503
990	22527
991	22401
992	22067
993	22199
994	21714
995	22001
996	21913
997	21662
998	21650
999	21241
1000	21462
1001	21597
1002	21363
1003	21484
1004	21268
1005	20992
1006	20877
1007	20896
1008	21192
1009	20705
1010	20912
1011	20794
1012	20757
1013	20559
1014	20647
1015	20709
1016	20180
1017	20122
1018	20158
1019	20324
1020	19970
1021	20141
1022	20098
1023	19889
1024	19947
1025	19706
1026	19670
1027	19523
1028	19583
1029	19486
1030	19297
1031	19113
1032	19097
1033	19165
1034	19000
1035	18989
1036	19043
1037	18941
1038	18678
1039	18842
1040	18758
1041	18591
1042	18298
1043	18240
1044	18445
1045	18304
1046	18479
1047	18363
1048	18213
1049	18093
1050	17967
1051	17883
1052	17978
1053	17820
1054	17712
1055	17603
1056	17717
1057	17460
1058	17320
1059	17566
1060	17485
1061	17312
1062	17217
1063	16954
1064	16942
1065	16965
1066	16950
1067	16949
1068	16762
1069	16919
1070	16741
1071	16796
1072	16634
1073	16507
1074	16558
1075	16506
1076	16165
1077	16249
1078	16368
1079	16293
1080	16038
1081	15962
1082	15836
1083	16151
1084	16074
1085	15781
1086	15733
1087	15663
1088	15707
1089	15471
1090	15520
1091	15464
1092	15224
1093	15263
1094	15357
1095	15301
1096	15356
1097	14765
1098	14988
1099	14918
1100	14926
1101	14920
1102	14711
1103	14791
1104	14524
1105	14672
1106	14600
1107	14577
1108	14379
1109	14336
1110	14428
1111	14462
1112	14139
1113	14497
1114	14288
1115	14078
1116	14167
1117	14233
1118	13949
1119	13937
1120	13721
1121	13969
1122	13859
1123	13747
1124	13770
1125	13846
1126	13500
1127	13430
1128	13618
1129	13391
1130	13346
1131	13251
1132	13298
1133	13137
1134	13117
1135	13330
1136	13182
1137	12922
1138	13302
1139	12999
1140	12869
1141	12963
1142	12992
1143	12839
1144	12686
1145	12664
1146	12579
1147	12619
1148	12584
1149	12498
1150	12462
1151	12421
1152	12285
1153	12276
1154	12363
1155	12237
1156	12255
1157	12212
1158	12082
1159	12240
1160	12043
1161	12088
1162	11942
1163	12022
1164	11962
1165	11835
1166	11787
1167	11793
1168	11831
1169	11650
1170	11578
1171	11579
1172	11512
1173	11603
1174	11549
1175	11570
1176	11362
1177	11618
1178	11424
1179	11282
1180	11246
1181	11283
1182	11270
1183	11116
1184	10963
1185	11011
1186	11196
1187	10752
1188	11015
1189	10844
1190	10881
1191	10778
1192	10934
1193	10819
1194	10711
1195	10749
1196	10643
1197	10567
1198	10601
1199	10540
1200	10685
1201	10408
1202	10486
1203	10410
1204	10127
1205	10264
1206	10111
1207	10304
1208	10232
1209	10332
1210	10084
1211	10076
1212	10004
1213	9902
1214	10073
1215	9740
1216	9796
1217	9946
1218	9988
1219	9716
1220	9854
1221	9674
1222	9728
1223	9653
1224	9612
1225	9583
1226	9601
1227	9459
1228	9534
1229	9590
1230	9406
1231	9378
1232	9395
1233	9260
1234	9263
1235	9417
1236	9160
1237	9239
1238	9294
1239	9154
1240	9076
1241	9070
1242	9096
1243	8935
1244	9057
1245	9056
1246	8951
1247	8915
1248	8735
1249	8724
1250	8845
1251	8832
1252	8780
1253	8802
1254	8737
1255	8591
1256	8674
1257	8590
1258	8563
1259	8794
1260	8277
1261	8403
1262	8487
1263	8559
1264	8436
1265	8480
1266	8121
1267	8331
1268	8288
1269	8264
1270	8104
1271	8140
1272	8001
1273	8200
1274	8223
1275	8081
1276	7985
1277	8010
1278	8015
1279	7988
1280	7876
1281	8009
1282	7718
1283	7682
1284	7702
1285	7753
1286	7585
1287	7612
1288	7716
1289	7672
1290	7550
1291	7505
1292	7734
1293	7434
1294	7608
1295	7498
1296	7460
1297	7381
1298	7383
1299	7415
1300	7326
1301	7334
1302	7254
1303	7383
1304	7359
1305	7284
1306	7151
1307	6960
1308	7136
1309	7234
1310	7107
1311	7143
1312	7063
1313	6951
1314	7008
1315	6917
1316	6830
1317	6954
1318	6868
1319	6719
1320	6917
1321	6687
1322	6924
1323	6777
1324	6703
1325	6648
1326	6713
1327	6627
1328	6683
1329	6548
1330	6569
1331	6586
1332	6700
1333	6621
1334	6553
1335	6286
1336	6517
1337	6486
1338	6456
1339	6425
1340	6436
1341	6401
1342	6431
1343	6285
1344	6237
1345	6325
1346	6199
1347	6257
1348	6143
1349	6368
1350	6214
1351	6135
1352	6053
1353	6079
1354	6022
1355	6097
1356	5968
1357	5967
1358	5960
1359	6028
1360	5971
1361	5874
1362	5763
1363	5823
1364	5868
1365	5888
1366	5659
1367	5788
1368	5698
1369	5763
1370	5684
1371	5798
1372	5785
1373	5670
1374	5476
1375	5623
1376	5464
1377	5698
1378	5556
1379	5525
1380	5500
1381	5530
1382	5428
1383	5436
1384	5323
1385	5388
1386	5440
1387	5488
1388	5376
1389	5403
1390	5292
1391	5254
1392	5323
1393	5305
1394	5196
1395	5122
1396	5184
1397	5261
1398	5213
1399	5192
1400	5089
1401	5088
1402	4954
1403	5053
1404	5075
1405	5019
1406	5000
1407	4921
1408	4998
1409	4941
1410	5042
1411	4800
1412	4881
1413	4778
1414	4759
1415	4872
1416	4730
1417	4706
1418	4821
1419	4812
1420	4706
1421	4803
1422	4728
1423	4724
1424	4670
1425	4758
1426	4654
1427	4642
1428	4531
1429	4639
1430	4640
1431	4539
1432	4653
1433	4484
1434	4522
1435	4503
1436	4475
1437	4388
1438	4509
1439	4498
1440	4496
1441	4325
1442	4311
1443	4386
1444	4330
1445	4345
1446	4349
1447	4345
1448	4346
1449	4463
1450	4282
1451	4262
1452	4228
1453	4270
1454	4214
1455	4179
1456	4129
1457	4270
1458	4189
1459	4097
1460	4039
1461	4059
1462	4024
1463	4099
1464	3996
1465	4088
1466	4065
1467	4001
1468	4029
1469	4032
1470	3975
1471	3979
1472	4017
1473	4077
1474	3864
1475	3932
1476	3975
1477	3909
1478	3823
1479	3907
1480	3848
1481	3737
1482	3854
1483	3826
1484	3703
1485	3795
1486	3846
1487	3806
1488	3613
1489	3743
1490	3685
1491	3717
1492	3676
1493	3630
1494	3720
1495	3689
1496	3676
1497	3692
1498	3580
1499	3606
1500	3568
1501	3550
1502	3559
1503	3619
1504	3490
1505	3586
1506	3536
1507	3484
1508	3413
1509	3557
1510	3415
1511	3473
1512	3346
1513	3452
1514	3412
1515	3331
1516	3392
1517	3350
1518	3430
1519	3324
1520	3240
1521	3392
1522	3272
1523	3360
1524	3386
1525	3242
1526	3232
1527	3190
1528	3313
1529	3263
1530	3225
1531	3193
1532	3122
1533	3129
1534	3181
1535	3101
1536	3155
1537	3152
1538	3139
1539	3185
1540	3068
1541	3052
1542	3041
1543	3076
1544	3199
1545	3163
1546	2972
1547	3018
1548	3032
1549	3103
1550	3060
1551	2984
1552	2898
1553	3008
1554	3001
1555	3012
1556	2950
1557	2866
1558	2935
1559	2904
1560	2971
1561	2873
1562	2875
1563	2876
1564	2849
1565	2744
1566	2873
1567	2907
1568	2830
1569	2797
1570	2832
1571	2727
1572	2807
1573	2762
1574	2746
1575	2730
1576	2752
1577	2742
1578	2780
1579	2665
1580	2698
1581	2720
1582	2643
1583	2723
1584	2611
1585	2639
1586	2640
1587	2575
1588	2600
1589	2690
1590	2581
1591	2560
1592	2602
1593	2569
1594	2563
1595	2472
1596	2516
1597	2564
1598	2564
1599	2530
1600	2421
1601	2606
1602	2463
1603	2436
1604	2567
1605	2488
1606	2458
1607	2511
1608	2462
1609	2364
1610	2471
1611	2466
1612	2441
1613	2407
1614	2318
1615	2402
1616	2424
1617	2372
1618	2311
1619	2351
1620	2334
1621	2341
1622	2307
1623	2280
1624	2356
1625	2323
1626	2301
1627	2243
1628	2240
1629	2297
1630	2293
1631	2257
1632	2192
1633	2226
1634	2323
1635	2174
1636	2210
1637	2190
1638	2164
1639	2137
1640	2209
1641	2196
1642	2234
1643	2188
1644	2141
1645	2116
1646	2088
1647	2108
1648	2023
1649	2147
1650	2136
1651	2086
1652	2060
1653	2051
1654	2104
1655	2093
1656	2026
1657	2048
1658	2053
1659	1991
1660	1936
1661	1937
1662	1969
1663	2038
1664	2094
1665	2051
1666	2099
1667	1955
1668	2000
1669	1904
1670	1904
1671	1898
1672	1984
1673	1908
1674	1938
1675	1913
1676	1929
1677	2008
1678	1886
1679	1916
1680	1881
1681	1888
1682	1838
1683	1870
1684	1825
1685	1875
1686	1850
1687	1833
1688	1887
1689	1828
1690	1817
1691	1840
1692	1828
1693	1827
1694	1864
1695	1807
1696	1782
1697	1817
1698	1777
1699	1715
1700	1832
1701	1768
1702	1791
1703	1755
1704	1789
1705	1757
1706	1768
1707	1783
1708	1710
1709	1766
1710	1838
1711	1682
1712	1800
1713	1664
1714	1678
1715	1695
1716	1710
1717	1655
1718	1726
1719	1711
1720	1689
1721	1694
1722	1664
1723	1599
1724	1610
1725	1627
1726	1655
1727	1589
1728	1584
1729	1585
1730	1598
1731	1587
1732	1584
1733	1593
1734	1549
1735	1487
1736	1521
1737	1533
1738	1585
1739	1491
1740	1523
1741	1585
1742	1596
1743	1538
1744	1553
1745	1560
1746	1513
1747	1500
1748	1512
1749	1475
1750	1457
1751	1396
1752	1541
1753	1504
1754	1379
1755	1473
1756	1476
1757	1411
1758	1428
1759	1406
1760	1460
1761	1394
1762	1383
1763	1429
1764	1363
1765	1376
1766	1399
1767	1373
1768	1325
1769	1379
1770	1393
1771	1347
1772	1328
1773	1343
1774	1421
1775	1328
1776	1377
1777	1394
1778	1368
1779	1374
1780	1299
1781	1408
1782	1381
1783	1324
1784	1333
1785	1322
1786	1359
1787	1330
1788	1304
1789	1295
1790	1304
1791	1283
1792	1320
1793	1291
1794	1220
1795	1246
1796	1259
1797	1231
1798	1233
1799	1243
1800	1268
1801	1251
1802	1277
1803	1211
1804	1226
1805	1227
1806	1231
1807	1248
1808	1249
1809	1177
1810	1230
1811	1172
1812	1189
1813	1193
1814	1149
1815	1148
1816	1226
1817	1130
1818	1134
1819	1151
1820	1168
1821	1198
1822	1150
1823	1195
1824	1209
1825	1170
1826	1117
1827	1158
1828	1196
1829	1119
1830	1120
1831	1088
1832	1140
1833	1124
1834	1076
1835	1079
1836	1094
1837	1099
1838	1167
1839	1109
1840	1118
1841	1077
1842	1067
1843	1091
1844	1053
1845	1057
1846	1043
1847	1004
1848	1089
1849	1010
1850	1048
1851	1079
1852	1113
1853	1068
1854	1017
1855	1055
1856	1089
1857	997
1858	1086
1859	1084
1860	1013
1861	970
1862	1006
1863	983
1864	973
1865	1007
1866	944
1867	1004
1868	984
1869	954
1870	1007
1871	966
1872	943
1873	967
1874	965
1875	971
1876	920
1877	947
1878	978
1879	966
1880	899
1881	949
1882	951
1883	960
1884	954
1885	939
1886	903
1887	911
1888	925
1889	960
1890	901
1891	925
1892	901
1893	900
1894	892
1895	888
1896	856
1897	898
1898	877
1899	823
1900	868
1901	869
1902	907
1903	818
1904	836
1905	864
1906	860
1907	852
1908	904
1909	826
1910	878
1911	856
1912	760
1913	793
1914	872
1915	851
1916	880
1917	857
1918	851
1919	758
1920	811
1921	852
1922	780
1923	797
1924	853
1925	774
1926	787
1927	840
1928	773
1929	785
1930	791
1931	823
1932	801
1933	783
1934	802
1935	813
1936	788
1937	776
1938	804
1939	794
1940	792
1941	785
1942	715
1943	723
1944	731
1945	745
1946	735
1947	733
1948	718
1949	753
1950	712
1951	728
1952	744
1953	739
1954	710
1955	715
1956	736
1957	735
1958	711
1959	740
1960	690
1961	698
1962	707
1963	727
1964	656
1965	661
1966	711
1967	701
1968	698
1969	739
1970	718
1971	688
1972	724
1973	708
1974	677
1975	700
1976	751
1977	674
1978	704
1979	676
1980	649
1981	656
1982	606
1983	676
1984	689
1985	638
1986	671
1987	661
1988	653
1989	651
1990	652
1991	665
1992	667
1993	698
1994	679
1995	694
1996	662
1997	631
1998	632
1999	635
2000	581
2001	645
2002	605
2003	664
2004	633
2005	622
2006	652
2007	644
2008	601
2009	600
2010	610
2011	624
2012	606
2013	608
2014	571
2015	576
2016	575
2017	600
2018	616
2019	639
2020	557
2021	564
2022	579
2023	571
2024	590
2025	589
2026	542
2027	567
2028	632
2029	591
2030	568
2031	579
2032	582
2033	555
2034	554
2035	578
2036	564
2037	546
2038	514
2039	532
2040	578
2041	565
2042	560
2043	543
2044	557
2045	530
2046	524
2047	493
2048	557
2049	531
2050	559
2051	562
2052	527
2053	554
2054	544
2055	559
2056	520
2057	530
2058	482
2059	529
2060	552
2061	576
2062	561
2063	512
2064	509
2065	528
2066	549
2067	502
2068	474
2069	504
2070	502
2071	515
2072	523
2073	500
2074	471
2075	492
2076	511
2077	505
2078	492
2079	510
2080	467
2081	499
2082	519
2083	478
2084	471
2085	466
2086	469
2087	503
2088	454
2089	461
2090	465
2091	499
2092	511
2093	498
2094	445
2095	498
2096	455
2097	462
2098	471
2099	462
2100	544
2101	498
2102	459
2103	447
2104	485
2105	476
2106	449
2107	468
2108	480
2109	429
2110	467
2111	461
2112	434
2113	460
2114	466
2115	475
2116	445
2117	440
2118	452
2119	471
2120	469
2121	485
2122	462
2123	488
2124	471
2125	442
2126	430
2127	414
2128	447
2129	490
2130	449
2131	483
2132	469
2133	447
2134	435
2135	445
2136	461
2137	454
2138	456
2139	456
2140	469
2141	471
2142	442
2143	473
2144	423
2145	435
2146	470
2147	465
2148	470
2149	439
2150	450
2151	462
2152	439
2153	466
2154	502
2155	452
2156	465
2157	496
2158	477
2159	448
2160	454
2161	460
2162	469
2163	486
2164	446
2165	430
2166	444
2167	459
2168	400
2169	438
2170	425
2171	471
2172	493
2173	458
2174	444
2175	473
2176	474
2177	477
2178	467
2179	487
2180	462
2181	444
2182	465
2183	453
2184	446
2185	455
2186	483
2187	478
2188	457
2189	434
2190	457
2191	492
2192	456
2193	452
2194	451
2195	474
2196	460
2197	466
2198	442
2199	463
2200	468
2201	483
2202	465
2203	457
2204	458
2205	433
2206	441
2207	449
2208	470
2209	492
2210	459
2211	445
2212	446
2213	440
2214	460
2215	445
2216	444
2217	439
2218	448
2219	462
2220	425
2221	461
2222	467
2223	426
2224	423
2225	431
2226	409
2227	441
2228	444
2229	426
2230	433
2231	449
2232	411
2233	442
2234	435
2235	453
2236	441
2237	432
2238	430
2239	457
2240	420
2241	443
2242	430
2243	421
2244	425
2245	437
2246	437
2247	417
2248	421
2249	387
2250	431
2251	421
2252	406
2253	415
2254	417
2255	420
2256	437
2257	429
2258	441
2259	422
2260	433
2261	406
2262	397
2263	399
2264	403
2265	389
2266	428
2267	411
2268	431
2269	380
2270	399
2271	433
2272	357
2273	387
2274	411
2275	386
2276	402
2277	405
2278	388
2279	409
2280	373
2281	404
2282	422
2283	400
2284	415
2285	397
2286	427
2287	371
2288	375
2289	396
2290	381
2291	412
2292	399
2293	403
2294	385
2295	378
2296	412
2297	381
2298	412
2299	410
2300	392
2301	382
2302	400
2303	386
2304	378
2305	393
2306	407
2307	417
2308	374
2309	373
2310	364
2311	408
2312	364
2313	387
2314	378
2315	353
2316	368
2317	384
2318	385
2319	336
2320	388
2321	392
2322	353
2323	344
2324	375
2325	370
2326	362
2327	391
2328	398
2329	371
2330	349
2331	350
2332	366
2333	394
2334	380
2335	362
2336	358
2337	350
2338	353
2339	398
2340	364
2341	329
2342	363
2343	358
2344	333
2345	348
2346	361
2347	337
2348	367
2349	334
2350	373
2351	333
2352	354
2353	341
2354	365
2355	363
2356	359
2357	352
2358	362
2359	338
2360	321
2361	358
2362	376
2363	306
2364	334
2365	300
2366	326
2367	329
2368	327
2369	319
2370	365
2371	364
2372	360
2373	337
2374	300
2375	311
2376	337
2377	326
2378	316
2379	335
2380	329
2381	342
2382	343
2383	323
2384	309
2385	339
2386	338
2387	291
2388	327
2389	319
2390	305
2391	365
2392	323
2393	315
2394	311
2395	304
2396	290
2397	311
2398	327
2399	321
2400	314
2401	275
2402	303
2403	307
2404	285
2405	350
2406	316
2407	319
2408	325
2409	290
2410	353
2411	313
2412	308
2413	325
2414	303
2415	322
2416	302
2417	350
2418	309
2419	319
2420	330
2421	297
2422	301
2423	293
2424	275
2425	302
2426	293
2427	324
2428	303
2429	289
2430	268
2431	308
2432	283
2433	261
2434	326
2435	288
2436	294
2437	286
2438	262
2439	297
2440	299
2441	324
2442	273
2443	288
2444	287
2445	268
2446	303
2447	275
2448	340
2449	295
2450	289
2451	320
2452	260
2453	265
2454	286
2455	291
2456	284
2457	311
2458	289
2459	288
2460	311
2461	280
2462	274
2463	282
2464	286
2465	289
2466	266
2467	247
2468	259
2469	281
2470	267
2471	279
2472	261
2473	248
2474	307
2475	289
2476	273
2477	282
2478	279
2479	256
2480	258
2481	261
2482	254
2483	291
2484	290
2485	272
2486	237
2487	256
2488	292
2489	258
2490	288
2491	266
2492	295
2493	260
2494	292
2495	260
2496	264
2497	291
2498	254
2499	277
2500	257
2501	263
2502	278
2503	234
2504	265
2505	251
2506	219
2507	251
2508	248
2509	243
2510	288
2511	250
2512	250
2513	224
2514	267
2515	248
2516	298
2517	272
2518	257
2519	247
2520	262
2521	235
2522	244
2523	253
2524	267
2525	252
2526	269
2527	270
2528	225
2529	249
2530	227
2531	245
2532	247
2533	275
2534	246
2535	277
2536	233
2537	224
2538	210
2539	256
2540	242
2541	263
2542	240
2543	254
2544	254
2545	248
2546	240
2547	265
2548	219
2549	215
2550	266
2551	234
2552	253
2553	253
2554	280
2555	230
2556	203
2557	259
2558	235
2559	232
2560	250
2561	228
2562	230
2563	262
2564	239
2565	243
2566	241
2567	241
2568	253
2569	252
2570	227
2571	205
2572	225
2573	229
2574	226
2575	226
2576	248
2577	220
2578	262
2579	214
2580	234
2581	242
2582	233
2583	235
2584	222
2585	244
2586	213
2587	249
2588	218
2589	212
2590	210
2591	223
2592	236
2593	222
2594	223
2595	218
2596	210
2597	241
2598	234
2599	214
2600	233
2601	224
2602	249
2603	216
2604	219
2605	226
2606	222
2607	229
2608	229
2609	219
2610	215
2611	209
2612	230
2613	191
2614	233
2615	205
2616	202
2617	217
2618	200
2619	224
2620	242
2621	242
2622	226
2623	243
2624	193
2625	204
2626	220
2627	200
2628	218
2629	187
2630	213
2631	228
2632	215
2633	213
2634	229
2635	174
2636	224
2637	195
2638	219
2639	205
2640	194
2641	238
2642	243
2643	199
2644	208
2645	216
2646	209
2647	206
2648	227
2649	202
2650	207
2651	230
2652	214
2653	224
2654	190
2655	208
2656	231
2657	187
2658	225
2659	221
2660	182
2661	219
2662	210
2663	217
2664	196
2665	203
2666	192
2667	177
2668	218
2669	184
2670	206
2671	165
2672	201
2673	219
2674	204
2675	181
2676	201
2677	197
2678	217
2679	180
2680	195
2681	196
2682	194
2683	193
2684	215
2685	197
2686	203
2687	203
2688	190
2689	170
2690	191
2691	201
2692	206
2693	196
2694	209
2695	217
2696	212
2697	194
2698	195
2699	169
2700	192
2701	218
2702	177
2703	189
2704	205
2705	188
2706	186
2707	192
2708	195
2709	193
2710	183
2711	181
2712	192
2713	175
2714	171
2715	193
2716	194
2717	169
2718	163
2719	184
2720	186
2721	171
2722	184
2723	194
2724	204
2725	171
2726	198
2727	183
2728	209
2729	192
2730	171
2731	183
2732	165
2733	142
2734	183
2735	181
2736	182
2737	169
2738	178
2739	189
2740	153
2741	146
2742	178
2743	184
2744	193
2745	176
2746	178
2747	175
2748	167
2749	171
2750	188
2751	172
2752	149
2753	155
2754	188
2755	187
2756	181
2757	173
2758	165
2759	158
2760	171
2761	173
2762	165
2763	182
2764	178
2765	182
2766	165
2767	140
2768	164
2769	151
2770	164
2771	150
2772	151
2773	134
2774	179
2775	169
2776	155
2777	159
2778	175
2779	177
2780	137
2781	154
2782	166
2783	176
2784	138
2785	194
2786	172
2787	163
2788	169
2789	162
2790	170
2791	155
2792	175
2793	149
2794	168
2795	172
2796	158
2797	164
2798	158
2799	147
2800	157
2801	147
2802	146
2803	162
2804	144
2805	149
2806	136
2807	164
2808	123
2809	153
2810	170
2811	145
2812	155
2813	149
2814	175
2815	143
2816	158
2817	153
2818	134
2819	146
2820	162
2821	158
2822	160
2823	146
2824	130
2825	148
2826	177
2827	141
2828	162
2829	144
2830	134
2831	172
2832	142
2833	136
2834	142
2835	129
2836	141
2837	146
2838	151
2839	147
2840	171
2841	150
2842	138
2843	132
2844	152
2845	159
2846	126
2847	143
2848	124
2849	147
2850	139
2851	142
2852	154
2853	135
2854	126
2855	124
2856	141
2857	142
2858	142
2859	143
2860	155
2861	114
2862	142
2863	162
2864	135
2865	147
2866	134
2867	137
2868	135
2869	133
2870	116
2871	154
2872	133
2873	137
2874	173
2875	166
2876	126
2877	146
2878	122
2879	148
2880	136
2881	118
2882	134
2883	135
2884	133
2885	139
2886	111
2887	141
2888	144
2889	132
2890	143
2891	135
2892	148
2893	126
2894	114
2895	127
2896	118
2897	147
2898	119
2899	127
2900	135
2901	117
2902	121
2903	102
2904	131
2905	129
2906	146
2907	119
2908	118
2909	111
2910	119
2911	122
2912	126
2913	132
2914	126
2915	122
2916	108
2917	136
2918	125
2919	125
2920	107
2921	128
2922	151
2923	104
2924	124
2925	118
2926	138
2927	138
2928	122
2929	133
2930	115
2931	125
2932	121
2933	101
2934	134
2935	123
2936	109
2937	109
2938	110
2939	124
2940	108
2941	112
2942	92
2943	118
2944	117
2945	121
2946	110
2947	122
2948	132
2949	106
2950	110
2951	95
2952	132
2953	98
2954	110
2955	104
2956	131
2957	123
2958	126
2959	113
2960	115
2961	107
2962	127
2963	125
2964	97
2965	94
2966	102
2967	94
2968	80
2969	104
2970	120
2971	101
2972	126
2973	124
2974	110
2975	110
2976	95
2977	103
2978	118
2979	100
2980	108
2981	101
2982	103
2983	116
2984	107
2985	95
2986	111
2987	96
2988	103
2989	105
2990	101
2991	111
2992	108
2993	103
2994	110
2995	122
2996	101
2997	110
2998	104
2999	110
3000	111
3001	94
3002	100
3003	99
3004	92
3005	116
3006	112
3007	107
3008	90
3009	99
3010	100
3011	102
3012	105
3013	110
3014	94
3015	99
3016	109
3017	83
3018	78
3019	95
3020	104
3021	96
3022	108
3023	100
3024	89
3025	72
3026	87
3027	106
3028	98
3029	100
3030	98
3031	102
3032	108
3033	110
3034	97
3035	113
3036	97
3037	93
3038	93
3039	103
3040	101
3041	99
3042	85
3043	100
3044	104
3045	104
3046	105
3047	94
3048	97
3049	109
3050	88
3051	113
3052	83
3053	99
3054	103
3055	95
3056	106
3057	64
3058	89
3059	84
3060	113
3061	95
3062	110
3063	105
3064	91
3065	110
3066	101
3067	96
3068	107
3069	90
3070	93
3071	108
3072	95
3073	83
3074	98
3075	103
3076	93
3077	86
3078	99
3079	95
3080	106
3081	93
3082	85
3083	102
3084	82
3085	84
3086	92
3087	92
3088	102
3089	79
3090	104
3091	87
3092	94
3093	96
3094	94
3095	85
3096	72
3097	77
3098	76
3099	90
3100	89
3101	89
3102	83
3103	84
3104	74
3105	76
3106	81
3107	64
3108	86
3109	81
3110	103
3111	106
3112	86
3113	96
3114	100
3115	70
3116	99
3117	96
3118	76
3119	90
3120	73
3121	83
3122	85
3123	76
3124	81
3125	87
3126	91
3127	81
3128	74
3129	62
3130	95
3131	84
3132	80
3133	70
3134	80
3135	80
3136	77
3137	81
3138	54
3139	79
3140	66
3141	72
3142	86
3143	73
3144	73
3145	73
3146	81
3147	75
3148	88
3149	86
3150	66
3151	60
3152	92
3153	90
3154	71
3155	78
3156	70
3157	76
3158	73
3159	81
3160	76
3161	70
3162	57
3163	88
3164	76
3165	83
3166	61
3167	75
3168	74
3169	71
3170	88
3171	78
3172	74
3173	77
3174	73
3175	85
3176	92
3177	70
3178	70
3179	83
3180	78
3181	77
3182	77
3183	66
3184	78
3185	62
3186	83
3187	72
3188	67
3189	73
3190	77
3191	76
3192	56
3193	78
3194	62
3195	78
3196	69
3197	87
3198	77
3199	62
3200	75
3201	68
3202	64
3203	78
3204	71
3205	64
3206	77
3207	74
3208	69
3209	74
3210	91
3211	54
3212	70
3213	80
3214	63
3215	64
3216	61
3217	67
3218	69
3219	63
3220	75
3221	63
3222	70
3223	81
3224	88
3225	77
3226	58
3227	64
3228	60
3229	52
3230	55
3231	60
3232	60
3233	77
3234	73
3235	57
3236	70
3237	64
3238	63
3239	70
3240	84
3241	70
3242	66
3243	81
3244	65
3245	72
3246	70
3247	66
3248	55
3249	52
3250	58
3251	42
3252	61
3253	80
3254	71
3255	70
3256	68
3257	50
3258	67
3259	68
3260	54
3261	53
3262	71
3263	67
3264	47
3265	80
3266	70
3267	75
3268	55
3269	44
3270	68
3271	51
3272	58
3273	60
3274	75
3275	57
3276	81
3277	60
3278	71
3279	67
3280	69
3281	66
3282	64
3283	59
3284	74
3285	53
3286	58
3287	69
3288	64
3289	53
3290	67
3291	63
3292	71
3293	71
3294	49
3295	59
3296	53
3297	72
3298	57
3299	50
3300	64
3301	63
3302	65
3303	51
3304	72
3305	68
3306	59
3307	62
3308	58
3309	44
3310	56
3311	69
3312	68
3313	56
3314	68
3315	51
3316	79
3317	65
