Item name: Decay VH

Real time: 60
Live time: 343.6
Time calibration: 1.408649E-02ns/ch

Comment: 


Chan	Data
1	0
2	0
3	0
4	0
5	0
6	0
7	0
8	0
9	0
10	0
11	0
12	0
13	0
14	0
15	0
16	0
17	0
18	0
19	0
20	0
21	0
22	0
23	0
24	0
25	0
26	0
27	0
28	0
29	0
30	0
31	0
32	0
33	0
34	0
35	0
36	0
37	0
38	0
39	0
40	0
41	0
42	0
43	0
44	0
45	0
46	0
47	0
48	0
49	0
50	0
51	0
52	0
53	0
54	0
55	0
56	0
57	0
58	0
59	0
60	0
61	0
62	0
63	0
64	0
65	0
66	0
67	0
68	0
69	0
70	0
71	0
72	0
73	0
74	0
75	0
76	0
77	0
78	0
79	0
80	0
81	0
82	0
83	0
84	0
85	0
86	0
87	0
88	0
89	0
90	0
91	0
92	0
93	0
94	0
95	0
96	0
97	0
98	4
99	9
100	8
101	5
102	10
103	8
104	11
105	7
106	8
107	3
108	6
109	5
110	8
111	11
112	4
113	12
114	8
115	8
116	7
117	7
118	13
119	12
120	10
121	11
122	5
123	7
124	7
125	4
126	10
127	6
128	6
129	7
130	10
131	5
132	3
133	3
134	13
135	6
136	6
137	8
138	6
139	8
140	12
141	7
142	4
143	10
144	8
145	8
146	12
147	9
148	7
149	4
150	8
151	9
152	9
153	10
154	8
155	7
156	4
157	7
158	11
159	7
160	3
161	15
162	10
163	3
164	7
165	7
166	9
167	8
168	9
169	5
170	9
171	8
172	4
173	9
174	2
175	5
176	8
177	7
178	3
179	8
180	11
181	4
182	10
183	10
184	6
185	8
186	8
187	7
188	6
189	7
190	11
191	7
192	2
193	9
194	7
195	9
196	7
197	10
198	5
199	10
200	9
201	10
202	4
203	7
204	7
205	6
206	9
207	13
208	8
209	4
210	5
211	6
212	5
213	10
214	7
215	10
216	7
217	9
218	10
219	9
220	8
221	11
222	5
223	12
224	9
225	9
226	7
227	7
228	8
229	10
230	10
231	7
232	3
233	6
234	14
235	2
236	9
237	8
238	8
239	10
240	6
241	4
242	9
243	8
244	7
245	5
246	4
247	12
248	10
249	8
250	7
251	8
252	10
253	6
254	12
255	6
256	12
257	9
258	9
259	9
260	5
261	10
262	9
263	10
264	7
265	6
266	6
267	12
268	6
269	6
270	8
271	8
272	7
273	5
274	5
275	13
276	8
277	11
278	7
279	10
280	8
281	10
282	7
283	10
284	8
285	8
286	10
287	4
288	12
289	4
290	7
291	10
292	10
293	15
294	8
295	7
296	6
297	6
298	8
299	7
300	6
301	8
302	7
303	7
304	7
305	9
306	11
307	6
308	7
309	6
310	8
311	13
312	9
313	7
314	11
315	11
316	5
317	4
318	5
319	6
320	4
321	9
322	3
323	6
324	12
325	5
326	11
327	8
328	6
329	11
330	8
331	5
332	12
333	5
334	5
335	4
336	7
337	5
338	8
339	7
340	5
341	8
342	5
343	13
344	10
345	5
346	14
347	6
348	8
349	8
350	7
351	11
352	9
353	12
354	0
355	8
356	3
357	5
358	9
359	7
360	6
361	5
362	8
363	6
364	8
365	7
366	11
367	5
368	10
369	10
370	6
371	8
372	5
373	9
374	4
375	10
376	11
377	6
378	8
379	5
380	6
381	5
382	7
383	6
384	6
385	5
386	12
387	4
388	5
389	6
390	4
391	4
392	10
393	9
394	4
395	5
396	9
397	9
398	3
399	11
400	5
401	9
402	9
403	4
404	7
405	7
406	7
407	10
408	9
409	7
410	8
411	17
412	12
413	8
414	7
415	6
416	5
417	13
418	7
419	8
420	9
421	8
422	7
423	4
424	9
425	7
426	5
427	8
428	8
429	7
430	10
431	11
432	5
433	5
434	7
435	4
436	7
437	9
438	10
439	6
440	12
441	6
442	9
443	5
444	7
445	12
446	7
447	7
448	12
449	11
450	9
451	6
452	9
453	10
454	4
455	10
456	12
457	4
458	1
459	12
460	14
461	12
462	7
463	6
464	4
465	10
466	7
467	10
468	6
469	8
470	5
471	8
472	6
473	7
474	4
475	12
476	5
477	11
478	8
479	12
480	14
481	12
482	8
483	6
484	7
485	12
486	12
487	5
488	11
489	9
490	5
491	3
492	11
493	6
494	7
495	9
496	14
497	9
498	10
499	10
500	14
501	11
502	11
503	16
504	17
505	20
506	19
507	31
508	31
509	34
510	32
511	50
512	46
513	53
514	77
515	115
516	127
517	144
518	215
519	217
520	322
521	422
522	578
523	770
524	948
525	1243
526	1547
527	2025
528	2652
529	3293
530	4032
531	4878
532	5928
533	7136
534	8211
535	9539
536	10998
537	12435
538	13750
539	15249
540	16791
541	18107
542	19313
543	20332
544	21626
545	22680
546	23349
547	24624
548	25665
549	26135
550	26185
551	26873
552	27444
553	27909
554	27979
555	28513
556	28492
557	28840
558	28949
559	29151
560	29238
561	29419
562	29541
563	29293
564	30001
565	29601
566	29718
567	29909
568	29944
569	29757
570	30346
571	29956
572	30414
573	29851
574	30081
575	30038
576	30128
577	29982
578	29957
579	30231
580	30048
581	29989
582	29978
583	30197
584	30014
585	30155
586	30484
587	30154
588	30324
589	30230
590	30042
591	29982
592	30225
593	29803
594	30392
595	29831
596	29536
597	30097
598	29488
599	29731
600	29683
601	29606
602	29837
603	29452
604	29553
605	29150
606	29344
607	29088
608	29740
609	29467
610	28939
611	28891
612	28941
613	29312
614	28833
615	28781
616	28528
617	28573
618	28737
619	28466
620	28650
621	28545
622	28208
623	28291
624	28319
625	28274
626	28039
627	27749
628	28062
629	27929
630	27967
631	27782
632	27652
633	27567
634	27162
635	27183
636	27153
637	27300
638	27213
639	27157
640	27134
641	26903
642	26830
643	26727
644	26750
645	26803
646	26583
647	26606
648	26494
649	26402
650	26608
651	25951
652	26227
653	25759
654	25924
655	25488
656	26008
657	25535
658	25675
659	25557
660	25584
661	25509
662	25260
663	25139
664	25492
665	25432
666	24823
667	24733
668	25238
669	24931
670	24568
671	24687
672	24800
673	24552
674	24481
675	24486
676	24397
677	24503
678	24381
679	24249
680	24336
681	23882
682	23732
683	23883
684	23875
685	23856
686	23607
687	23489
688	23595
689	23544
690	23510
691	23210
692	23370
693	23420
694	23241
695	22913
696	23070
697	22899
698	22962
699	22887
700	22795
701	22496
702	22844
703	22473
704	22403
705	22359
706	22164
707	22344
708	21997
709	21919
710	22047
711	22181
712	21871
713	21904
714	21723
715	21758
716	21631
717	21320
718	21389
719	21372
720	21110
721	21175
722	21045
723	21141
724	20627
725	21120
726	20965
727	20614
728	20839
729	20496
730	20631
731	20372
732	20609
733	20573
734	20281
735	20285
736	20384
737	20020
738	19935
739	19882
740	19900
741	19815
742	19767
743	19661
744	19553
745	19294
746	19558
747	19339
748	19305
749	19222
750	19398
751	19079
752	19224
753	18881
754	19117
755	18700
756	18764
757	18547
758	18906
759	18802
760	18543
761	18265
762	18404
763	18442
764	18127
765	18289
766	17965
767	18171
768	18188
769	17876
770	17902
771	17886
772	17592
773	17738
774	17924
775	17698
776	17463
777	17363
778	17410
779	17194
780	17271
781	17363
782	17551
783	17197
784	17266
785	17070
786	17042
787	17142
788	16783
789	16888
790	16667
791	16756
792	16970
793	16559
794	16575
795	16671
796	16594
797	16558
798	16477
799	16320
800	16246
801	16247
802	16188
803	16190
804	16215
805	16128
806	15957
807	15965
808	16009
809	15874
810	15809
811	15723
812	15757
813	15631
814	15699
815	15553
816	15565
817	15566
818	15408
819	15524
820	15400
821	15223
822	15137
823	15425
824	15091
825	14986
826	14859
827	14945
828	15148
829	14718
830	14827
831	14710
832	14775
833	14596
834	14498
835	14700
836	14264
837	14299
838	14463
839	14614
840	14276
841	14421
842	14296
843	14249
844	14095
845	14109
846	14186
847	13964
848	13815
849	13741
850	13763
851	13760
852	13616
853	13832
854	13582
855	13701
856	13245
857	13172
858	13156
859	13244
860	13113
861	13416
862	13234
863	13123
864	13077
865	13134
866	13032
867	12986
868	13073
869	12785
870	12821
871	12720
872	12545
873	12920
874	12886
875	12565
876	12438
877	12696
878	12432
879	12380
880	12339
881	12275
882	12347
883	12207
884	12057
885	11906
886	12202
887	12151
888	11970
889	12049
890	11879
891	11866
892	11795
893	12092
894	11838
895	11644
896	11703
897	11720
898	11720
899	11573
900	11487
901	11578
902	11370
903	11543
904	11480
905	11307
906	11362
907	11310
908	11142
909	11194
910	11259
911	11194
912	11103
913	10938
914	10883
915	11073
916	10998
917	10942
918	10801
919	11007
920	10878
921	10753
922	10726
923	10864
924	10714
925	10593
926	10443
927	10843
928	10484
929	10366
930	10256
931	10445
932	10549
933	10341
934	10250
935	10518
936	10419
937	10311
938	10235
939	10066
940	10060
941	10204
942	9924
943	9841
944	10007
945	10128
946	9733
947	9935
948	9759
949	9940
950	9715
951	9598
952	9850
953	9489
954	9615
955	9575
956	9590
957	9545
958	9477
959	9335
960	9390
961	9438
962	9526
963	9215
964	9108
965	9011
966	9309
967	8953
968	9235
969	8921
970	8877
971	8984
972	8953
973	8907
974	8923
975	8794
976	8852
977	8836
978	8851
979	8764
980	8791
981	8745
982	8551
983	8558
984	8711
985	8443
986	8646
987	8484
988	8514
989	8357
990	8434
991	8306
992	8222
993	8216
994	8359
995	8296
996	8183
997	8122
998	8227
999	8260
1000	8290
1001	8019
1002	7968
1003	8015
1004	8054
1005	8040
1006	7868
1007	7942
1008	7948
1009	7914
1010	7824
1011	7868
1012	7931
1013	7627
1014	7725
1015	7834
1016	7668
1017	7712
1018	7455
1019	7773
1020	7620
1021	7574
1022	7488
1023	7533
1024	7337
1025	7521
1026	7390
1027	7370
1028	7294
1029	7463
1030	7288
1031	7290
1032	7260
1033	7196
1034	7126
1035	7172
1036	7139
1037	7174
1038	6994
1039	7037
1040	7061
1041	6899
1042	7044
1043	6963
1044	6953
1045	7034
1046	6811
1047	6965
1048	6912
1049	6896
1050	6845
1051	6819
1052	6791
1053	6751
1054	6696
1055	6718
1056	6658
1057	6622
1058	6532
1059	6797
1060	6469
1061	6558
1062	6536
1063	6499
1064	6591
1065	6481
1066	6423
1067	6281
1068	6441
1069	6528
1070	6306
1071	6327
1072	6357
1073	6185
1074	6291
1075	6225
1076	6346
1077	6052
1078	6137
1079	6108
1080	6021
1081	6005
1082	6101
1083	6014
1084	5998
1085	5928
1086	5982
1087	5924
1088	5990
1089	6009
1090	6033
1091	5812
1092	5847
1093	5683
1094	5841
1095	5812
1096	5695
1097	5638
1098	5735
1099	5720
1100	5616
1101	5577
1102	5444
1103	5642
1104	5637
1105	5567
1106	5559
1107	5563
1108	5548
1109	5425
1110	5417
1111	5479
1112	5371
1113	5451
1114	5514
1115	5336
1116	5400
1117	5295
1118	5307
1119	5357
1120	5294
1121	5207
1122	5236
1123	5197
1124	5202
1125	5225
1126	5224
1127	5210
1128	5165
1129	5208
1130	5142
1131	5065
1132	5016
1133	5073
1134	5138
1135	5014
1136	4981
1137	4864
1138	4911
1139	5013
1140	4995
1141	5002
1142	4858
1143	4934
1144	4886
1145	4853
1146	4728
1147	4933
1148	4802
1149	4760
1150	4932
1151	4833
1152	4714
1153	4729
1154	4626
1155	4607
1156	4734
1157	4560
1158	4694
1159	4721
1160	4661
1161	4577
1162	4606
1163	4592
1164	4608
1165	4545
1166	4403
1167	4494
1168	4531
1169	4351
1170	4542
1171	4403
1172	4411
1173	4377
1174	4237
1175	4444
1176	4308
1177	4314
1178	4337
1179	4294
1180	4337
1181	4345
1182	4267
1183	4219
1184	4205
1185	4305
1186	4285
1187	4155
1188	4195
1189	4069
1190	4158
1191	3997
1192	4023
1193	4057
1194	4098
1195	4104
1196	4055
1197	3996
1198	4075
1199	3998
1200	3983
1201	3963
1202	4071
1203	3941
1204	4019
1205	3903
1206	3849
1207	3828
1208	3891
1209	3848
1210	3933
1211	3829
1212	3719
1213	3858
1214	3760
1215	3719
1216	3652
1217	3786
1218	3781
1219	3772
1220	3796
1221	3673
1222	3744
1223	3746
1224	3612
1225	3636
1226	3752
1227	3669
1228	3646
1229	3516
1230	3526
1231	3575
1232	3611
1233	3533
1234	3726
1235	3492
1236	3562
1237	3522
1238	3426
1239	3545
1240	3397
1241	3527
1242	3405
1243	3358
1244	3488
1245	3432
1246	3390
1247	3389
1248	3343
1249	3343
1250	3420
1251	3382
1252	3385
1253	3400
1254	3315
1255	3354
1256	3284
1257	3274
1258	3311
1259	3222
1260	3241
1261	3268
1262	3292
1263	3170
1264	3277
1265	3161
1266	3160
1267	3266
1268	3133
1269	3108
1270	3165
1271	3076
1272	3052
1273	3156
1274	3014
1275	3143
1276	3092
1277	3075
1278	3026
1279	3058
1280	2966
1281	3009
1282	2981
1283	3032
1284	2929
1285	2972
1286	3017
1287	2870
1288	2915
1289	2992
1290	2883
1291	2950
1292	2776
1293	2877
1294	2918
1295	2875
1296	2819
1297	2832
1298	2846
1299	2792
1300	2776
1301	2824
1302	2771
1303	2822
1304	2935
1305	2782
1306	2737
1307	2808
1308	2695
1309	2866
1310	2709
1311	2630
1312	2701
1313	2582
1314	2630
1315	2718
1316	2783
1317	2673
1318	2586
1319	2652
1320	2610
1321	2651
1322	2588
1323	2613
1324	2607
1325	2680
1326	2613
1327	2581
1328	2590
1329	2564
1330	2630
1331	2450
1332	2409
1333	2461
1334	2538
1335	2503
1336	2533
1337	2436
1338	2425
1339	2458
1340	2455
1341	2355
1342	2445
1343	2434
1344	2487
1345	2455
1346	2421
1347	2387
1348	2453
1349	2327
1350	2388
1351	2321
1352	2332
1353	2328
1354	2376
1355	2411
1356	2263
1357	2221
1358	2221
1359	2300
1360	2241
1361	2326
1362	2318
1363	2263
1364	2203
1365	2206
1366	2240
1367	2197
1368	2269
1369	2274
1370	2119
1371	2243
1372	2241
1373	2110
1374	2184
1375	2180
1376	2203
1377	2147
1378	2110
1379	2199
1380	2125
1381	2045
1382	2166
1383	2102
1384	2105
1385	2089
1386	2075
1387	2013
1388	2037
1389	2066
1390	2018
1391	2071
1392	1986
1393	2099
1394	2071
1395	2043
1396	1976
1397	1984
1398	2048
1399	1898
1400	2003
1401	1875
1402	1966
1403	1934
1404	1910
1405	1886
1406	1952
1407	1943
1408	1820
1409	1823
1410	1939
1411	1839
1412	1937
1413	1873
1414	1804
1415	1816
1416	1807
1417	1836
1418	1913
1419	1865
1420	1814
1421	1758
1422	1811
1423	1761
1424	1819
1425	1804
1426	1796
1427	1766
1428	1765
1429	1894
1430	1813
1431	1687
1432	1725
1433	1767
1434	1728
1435	1744
1436	1809
1437	1695
1438	1675
1439	1680
1440	1766
1441	1661
1442	1755
1443	1707
1444	1727
1445	1715
1446	1722
1447	1696
1448	1632
1449	1612
1450	1574
1451	1693
1452	1545
1453	1593
1454	1637
1455	1555
1456	1627
1457	1638
1458	1570
1459	1632
1460	1490
1461	1593
1462	1613
1463	1583
1464	1549
1465	1580
1466	1580
1467	1513
1468	1582
1469	1559
1470	1501
1471	1532
1472	1503
1473	1501
1474	1539
1475	1583
1476	1581
1477	1469
1478	1494
1479	1407
1480	1375
1481	1487
1482	1440
1483	1475
1484	1474
1485	1475
1486	1472
1487	1392
1488	1474
1489	1505
1490	1437
1491	1453
1492	1382
1493	1409
1494	1402
1495	1386
1496	1400
1497	1440
1498	1396
1499	1421
1500	1329
1501	1409
1502	1383
1503	1362
1504	1378
1505	1422
1506	1368
1507	1402
1508	1310
1509	1338
1510	1306
1511	1272
1512	1265
1513	1297
1514	1267
1515	1275
1516	1294
1517	1303
1518	1374
1519	1243
1520	1270
1521	1254
1522	1255
1523	1289
1524	1264
1525	1196
1526	1239
1527	1220
1528	1233
1529	1265
1530	1196
1531	1237
1532	1196
1533	1243
1534	1235
1535	1147
1536	1246
1537	1242
1538	1216
1539	1172
1540	1178
1541	1191
1542	1194
1543	1159
1544	1283
1545	1236
1546	1152
1547	1191
1548	1192
1549	1107
1550	1171
1551	1170
1552	1124
1553	1145
1554	1107
1555	1148
1556	1135
1557	1101
1558	1102
1559	1135
1560	1084
1561	1074
1562	1120
1563	1126
1564	1110
1565	1070
1566	1096
1567	1018
1568	1058
1569	1071
1570	1038
1571	1107
1572	1142
1573	1058
1574	1030
1575	1082
1576	1075
1577	1076
1578	1076
1579	1052
1580	1061
1581	977
1582	1081
1583	1034
1584	1032
1585	1054
1586	1053
1587	979
1588	1019
1589	1001
1590	1047
1591	986
1592	973
1593	974
1594	994
1595	1049
1596	926
1597	969
1598	948
1599	1028
1600	960
1601	947
1602	960
1603	942
1604	902
1605	968
1606	985
1607	994
1608	906
1609	965
1610	924
1611	957
1612	931
1613	902
1614	918
1615	957
1616	855
1617	871
1618	895
1619	938
1620	886
1621	921
1622	895
1623	902
1624	844
1625	804
1626	810
1627	895
1628	855
1629	841
1630	886
1631	894
1632	872
1633	898
1634	910
1635	834
1636	803
1637	884
1638	828
1639	819
1640	859
1641	827
1642	772
1643	833
1644	821
1645	882
1646	796
1647	799
1648	822
1649	840
1650	837
1651	814
1652	791
1653	829
1654	835
1655	744
1656	763
1657	791
1658	826
1659	793
1660	811
1661	785
1662	783
1663	757
1664	774
1665	744
1666	813
1667	824
1668	754
1669	714
1670	804
1671	728
1672	785
1673	742
1674	833
1675	722
1676	801
1677	740
1678	713
1679	711
1680	717
1681	724
1682	733
1683	721
1684	679
1685	757
1686	728
1687	740
1688	720
1689	745
1690	716
1691	729
1692	690
1693	715
1694	683
1695	699
1696	707
1697	701
1698	703
1699	658
1700	686
1701	650
1702	685
1703	682
1704	684
1705	678
1706	707
1707	707
1708	690
1709	631
1710	700
1711	702
1712	697
1713	700
1714	650
1715	671
1716	686
1717	658
1718	661
1719	609
1720	658
1721	602
1722	644
1723	656
1724	624
1725	629
1726	637
1727	608
1728	608
1729	615
1730	628
1731	654
1732	639
1733	611
1734	579
1735	602
1736	607
1737	595
1738	613
1739	586
1740	640
1741	597
1742	613
1743	635
1744	621
1745	581
1746	582
1747	572
1748	541
1749	527
1750	550
1751	566
1752	578
1753	535
1754	539
1755	578
1756	527
1757	576
1758	550
1759	549
1760	575
1761	545
1762	571
1763	545
1764	523
1765	535
1766	551
1767	553
1768	538
1769	566
1770	525
1771	551
1772	541
1773	522
1774	503
1775	522
1776	570
1777	546
1778	564
1779	546
1780	492
1781	514
1782	531
1783	502
1784	499
1785	531
1786	476
1787	525
1788	453
1789	471
1790	489
1791	480
1792	489
1793	479
1794	495
1795	479
1796	492
1797	498
1798	469
1799	457
1800	447
1801	463
1802	468
1803	450
1804	474
1805	493
1806	505
1807	465
1808	447
1809	453
1810	492
1811	463
1812	443
1813	443
1814	476
1815	496
1816	433
1817	434
1818	471
1819	436
1820	451
1821	429
1822	477
1823	488
1824	423
1825	440
1826	387
1827	430
1828	432
1829	440
1830	453
1831	462
1832	407
1833	425
1834	430
1835	432
1836	438
1837	391
1838	412
1839	458
1840	394
1841	405
1842	411
1843	428
1844	424
1845	416
1846	392
1847	414
1848	384
1849	408
1850	417
1851	381
1852	419
1853	412
1854	384
1855	369
1856	372
1857	393
1858	407
1859	413
1860	359
1861	376
1862	396
1863	409
1864	412
1865	446
1866	361
1867	401
1868	413
1869	389
1870	406
1871	382
1872	387
1873	402
1874	369
1875	349
1876	375
1877	385
1878	361
1879	384
1880	364
1881	354
1882	356
1883	347
1884	359
1885	357
1886	364
1887	360
1888	343
1889	357
1890	349
1891	339
1892	368
1893	366
1894	368
1895	339
1896	348
1897	352
1898	319
1899	323
1900	384
1901	370
1902	362
1903	311
1904	335
1905	364
1906	352
1907	320
1908	312
1909	336
1910	347
1911	334
1912	340
1913	311
1914	375
1915	330
1916	342
1917	326
1918	315
1919	322
1920	319
1921	319
1922	293
1923	320
1924	305
1925	310
1926	320
1927	339
1928	285
1929	293
1930	330
1931	313
1932	325
1933	304
1934	307
1935	303
1936	319
1937	300
1938	318
1939	295
1940	276
1941	313
1942	285
1943	290
1944	293
1945	273
1946	249
1947	258
1948	302
1949	263
1950	316
1951	274
1952	269
1953	279
1954	264
1955	264
1956	312
1957	265
1958	280
1959	301
1960	286
1961	293
1962	284
1963	279
1964	293
1965	274
1966	288
1967	269
1968	265
1969	274
1970	283
1971	290
1972	269
1973	286
1974	285
1975	238
1976	278
1977	238
1978	274
1979	254
1980	266
1981	237
1982	253
1983	255
1984	256
1985	302
1986	237
1987	247
1988	238
1989	246
1990	251
1991	246
1992	252
1993	263
1994	231
1995	249
1996	238
1997	267
1998	282
1999	232
2000	252
2001	236
2002	226
2003	240
2004	246
2005	247
2006	267
2007	232
2008	221
2009	240
2010	233
2011	267
2012	251
2013	203
2014	211
2015	237
2016	227
2017	229
2018	235
2019	230
2020	196
2021	201
2022	233
2023	191
2024	235
2025	250
2026	251
2027	220
2028	210
2029	225
2030	223
2031	229
2032	237
2033	221
2034	233
2035	228
2036	232
2037	216
2038	217
2039	240
2040	225
2041	199
2042	205
2043	182
2044	201
2045	232
2046	235
2047	200
2048	190
2049	183
2050	218
2051	247
2052	197
2053	211
2054	231
2055	210
2056	197
2057	190
2058	185
2059	179
2060	219
2061	180
2062	223
2063	197
2064	184
2065	190
2066	183
2067	191
2068	181
2069	190
2070	172
2071	198
2072	183
2073	197
2074	185
2075	184
2076	186
2077	181
2078	173
2079	187
2080	182
2081	173
2082	180
2083	189
2084	206
2085	194
2086	191
2087	160
2088	185
2089	181
2090	183
2091	156
2092	176
2093	195
2094	189
2095	177
2096	186
2097	199
2098	185
2099	188
2100	167
2101	173
2102	177
2103	178
2104	164
2105	200
2106	170
2107	188
2108	188
2109	173
2110	164
2111	156
2112	166
2113	162
2114	186
2115	138
2116	177
2117	175
2118	159
2119	181
2120	167
2121	169
2122	177
2123	155
2124	174
2125	170
2126	193
2127	169
2128	178
2129	174
2130	178
2131	162
2132	189
2133	154
2134	155
2135	149
2136	161
2137	190
2138	161
2139	151
2140	190
2141	170
2142	170
2143	162
2144	201
2145	183
2146	181
2147	166
2148	167
2149	151
2150	192
2151	157
2152	144
2153	195
2154	196
2155	169
2156	160
2157	168
2158	155
2159	165
2160	160
2161	162
2162	176
2163	183
2164	190
2165	192
2166	183
2167	193
2168	172
2169	189
2170	174
2171	171
2172	176
2173	164
2174	184
2175	149
2176	170
2177	187
2178	166
2179	163
2180	172
2181	161
2182	186
2183	170
2184	182
2185	167
2186	171
2187	166
2188	165
2189	147
2190	152
2191	163
2192	167
2193	162
2194	175
2195	182
2196	174
2197	184
2198	133
2199	168
2200	163
2201	165
2202	148
2203	159
2204	143
2205	178
2206	174
2207	154
2208	158
2209	163
2210	156
2211	169
2212	158
2213	152
2214	147
2215	161
2216	141
2217	171
2218	178
2219	165
2220	154
2221	161
2222	164
2223	148
2224	184
2225	150
2226	154
2227	156
2228	174
2229	159
2230	156
2231	153
2232	146
2233	162
2234	140
2235	142
2236	159
2237	147
2238	158
2239	167
2240	147
2241	150
2242	168
2243	137
2244	163
2245	159
2246	131
2247	143
2248	122
2249	150
2250	143
2251	152
2252	155
2253	170
2254	171
2255	163
2256	162
2257	137
2258	150
2259	197
2260	149
2261	145
2262	142
2263	161
2264	150
2265	168
2266	151
2267	133
2268	146
2269	119
2270	158
2271	151
2272	175
2273	156
2274	150
2275	153
2276	148
2277	160
2278	156
2279	153
2280	145
2281	150
2282	141
2283	146
2284	140
2285	146
2286	129
2287	149
2288	140
2289	129
2290	144
2291	158
2292	138
2293	144
2294	147
2295	155
2296	146
2297	153
2298	146
2299	137
2300	159
2301	134
2302	141
2303	131
2304	152
2305	127
2306	129
2307	143
2308	137
2309	135
2310	148
2311	149
2312	131
2313	133
2314	120
2315	154
2316	123
2317	147
2318	143
2319	157
2320	141
2321	125
2322	139
2323	135
2324	128
2325	127
2326	119
2327	142
2328	137
2329	116
2330	131
2331	142
2332	132
2333	128
2334	154
2335	127
2336	129
2337	128
2338	102
2339	139
2340	134
2341	123
2342	128
2343	128
2344	118
2345	138
2346	135
2347	131
2348	115
2349	134
2350	108
2351	134
2352	130
2353	137
2354	139
2355	113
2356	131
2357	138
2358	129
2359	106
2360	111
2361	118
2362	139
2363	120
2364	135
2365	127
2366	107
2367	120
2368	142
2369	132
2370	119
2371	111
2372	119
2373	129
2374	104
2375	110
2376	129
2377	125
2378	125
2379	113
2380	126
2381	106
2382	121
2383	127
2384	123
2385	134
2386	120
2387	137
2388	123
2389	125
2390	119
2391	117
2392	113
2393	145
2394	100
2395	114
2396	119
2397	112
2398	87
2399	115
2400	130
2401	87
2402	109
2403	104
2404	121
2405	118
2406	101
2407	107
2408	114
2409	110
2410	104
2411	103
2412	125
2413	113
2414	97
2415	110
2416	105
2417	117
2418	110
2419	122
2420	124
2421	112
2422	119
2423	120
2424	105
2425	105
2426	94
2427	102
2428	109
2429	133
2430	101
2431	85
2432	119
2433	137
2434	124
2435	102
2436	104
2437	115
2438	103
2439	113
2440	114
2441	110
2442	81
2443	117
2444	86
2445	103
2446	104
2447	96
2448	102
2449	114
2450	101
2451	104
2452	90
2453	103
2454	104
2455	116
2456	99
2457	110
2458	101
2459	92
2460	89
2461	116
2462	107
2463	108
2464	87
2465	100
2466	105
2467	105
2468	93
2469	105
2470	88
2471	98
2472	115
2473	98
2474	90
2475	94
2476	91
2477	91
2478	97
2479	86
2480	114
2481	90
2482	110
2483	92
2484	101
2485	88
2486	106
2487	100
2488	105
2489	95
2490	79
2491	110
2492	96
2493	96
2494	83
2495	107
2496	101
2497	93
2498	101
2499	101
2500	86
2501	94
2502	104
2503	105
2504	83
2505	105
2506	100
2507	98
2508	97
2509	91
2510	88
2511	89
2512	81
2513	95
2514	109
2515	96
2516	83
2517	96
2518	93
2519	85
2520	101
2521	111
2522	97
2523	71
2524	113
2525	106
2526	105
2527	90
2528	88
2529	112
2530	86
2531	80
2532	89
2533	101
2534	102
2535	101
2536	114
2537	91
2538	96
2539	90
2540	76
2541	88
2542	103
2543	84
2544	99
2545	85
2546	89
2547	101
2548	95
2549	93
2550	90
2551	99
2552	88
2553	88
2554	85
2555	100
2556	90
2557	75
2558	103
2559	91
2560	94
2561	86
2562	77
2563	84
2564	81
2565	91
2566	95
2567	87
2568	96
2569	92
2570	80
2571	83
2572	103
2573	86
2574	87
2575	89
2576	90
2577	97
2578	90
2579	96
2580	83
2581	103
2582	74
2583	75
2584	77
2585	72
2586	89
2587	94
2588	81
2589	96
2590	85
2591	73
2592	79
2593	83
2594	85
2595	99
2596	77
2597	86
2598	88
2599	83
2600	96
2601	106
2602	81
2603	86
2604	75
2605	102
2606	96
2607	86
2608	75
2609	72
2610	92
2611	75
2612	108
2613	92
2614	76
2615	68
2616	84
2617	78
2618	88
2619	71
2620	81
2621	83
2622	65
2623	81
2624	84
2625	76
2626	90
2627	72
2628	101
2629	82
2630	102
2631	89
2632	75
2633	80
2634	76
2635	76
2636	85
2637	81
2638	94
2639	96
2640	79
2641	95
2642	77
2643	68
2644	81
2645	71
2646	69
2647	72
2648	81
2649	66
2650	93
2651	82
2652	73
2653	87
2654	78
2655	70
2656	88
2657	79
2658	76
2659	63
2660	65
2661	83
2662	74
2663	79
2664	68
2665	83
2666	74
2667	65
2668	60
2669	77
2670	85
2671	87
2672	81
2673	79
2674	60
2675	84
2676	67
2677	68
2678	64
2679	59
2680	77
2681	71
2682	69
2683	65
2684	82
2685	71
2686	71
2687	76
2688	73
2689	75
2690	55
2691	59
2692	63
2693	67
2694	71
2695	76
2696	75
2697	61
2698	66
2699	64
2700	66
2701	53
2702	67
2703	83
2704	67
2705	59
2706	77
2707	64
2708	68
2709	65
2710	68
2711	59
2712	77
2713	66
2714	63
2715	73
2716	74
2717	68
2718	56
2719	69
2720	74
2721	54
2722	60
2723	84
2724	76
2725	70
2726	78
2727	59
2728	83
2729	65
2730	67
2731	61
2732	64
2733	77
2734	67
2735	60
2736	58
2737	58
2738	75
2739	73
2740	65
2741	68
2742	63
2743	81
2744	68
2745	55
2746	72
2747	82
2748	53
2749	67
2750	63
2751	60
2752	59
2753	65
2754	51
2755	63
2756	57
2757	57
2758	69
2759	68
2760	64
2761	68
2762	71
2763	61
2764	57
2765	50
2766	67
2767	66
2768	70
2769	77
2770	61
2771	54
2772	68
2773	64
2774	53
2775	66
2776	49
2777	51
2778	58
2779	76
2780	63
2781	54
2782	73
2783	51
2784	58
2785	69
2786	52
2787	55
2788	61
2789	59
2790	64
2791	55
2792	55
2793	78
2794	62
2795	49
2796	69
2797	65
2798	55
2799	49
2800	70
2801	49
2802	56
2803	56
2804	56
2805	61
2806	66
2807	54
2808	52
2809	49
2810	68
2811	56
2812	68
2813	64
2814	41
2815	52
2816	62
2817	47
2818	61
2819	45
2820	45
2821	54
2822	49
2823	61
2824	53
2825	52
2826	50
2827	57
2828	63
2829	54
2830	52
2831	46
2832	56
2833	59
2834	48
2835	67
2836	45
2837	58
2838	69
2839	52
2840	61
2841	43
2842	58
2843	50
2844	66
2845	72
2846	52
2847	55
2848	51
2849	57
2850	60
2851	55
2852	65
2853	55
2854	49
2855	57
2856	65
2857	51
2858	47
2859	39
2860	53
2861	53
2862	61
2863	42
2864	43
2865	59
2866	59
2867	61
2868	48
2869	58
2870	56
2871	56
2872	50
2873	47
2874	54
2875	39
2876	51
2877	51
2878	48
2879	52
2880	42
2881	54
2882	55
2883	42
2884	59
2885	38
2886	53
2887	44
2888	38
2889	51
2890	37
2891	42
2892	53
2893	32
2894	42
2895	50
2896	36
2897	42
2898	38
2899	52
2900	55
2901	57
2902	50
2903	54
2904	49
2905	55
2906	53
2907	58
2908	40
2909	48
2910	46
2911	44
2912	41
2913	55
2914	50
2915	30
2916	51
2917	46
2918	41
2919	49
2920	61
2921	52
2922	42
2923	49
2924	54
2925	45
2926	45
2927	54
2928	43
2929	42
2930	30
2931	38
2932	42
2933	43
2934	50
2935	54
2936	43
2937	41
2938	44
2939	36
2940	54
2941	52
2942	35
2943	42
2944	37
2945	47
2946	33
2947	44
2948	44
2949	39
2950	38
2951	42
2952	40
2953	40
2954	38
2955	45
2956	41
2957	42
2958	45
2959	37
2960	33
2961	56
2962	42
2963	33
2964	45
2965	41
2966	44
2967	35
2968	29
2969	36
2970	35
2971	31
2972	32
2973	39
2974	36
2975	30
2976	50
2977	46
2978	49
2979	48
2980	38
2981	37
2982	46
2983	45
2984	43
2985	32
2986	47
2987	40
2988	37
2989	40
2990	30
2991	55
2992	35
2993	40
2994	40
2995	30
2996	49
2997	39
2998	36
2999	34
3000	35
3001	42
3002	33
3003	35
3004	31
3005	54
3006	41
3007	34
3008	37
3009	49
3010	38
3011	28
3012	35
3013	41
3014	26
3015	32
3016	55
3017	36
3018	36
3019	42
3020	34
3021	46
3022	35
3023	34
3024	32
3025	33
3026	43
3027	35
3028	39
3029	31
3030	48
3031	34
3032	34
3033	45
3034	44
3035	28
3036	31
3037	44
3038	29
3039	39
3040	37
3041	21
3042	29
3043	44
3044	29
3045	43
3046	27
3047	32
3048	29
3049	29
3050	29
3051	31
3052	36
3053	39
3054	50
3055	29
3056	31
3057	41
3058	33
3059	36
3060	47
3061	45
3062	30
3063	30
3064	27
3065	38
3066	35
3067	38
3068	26
3069	39
3070	34
3071	29
3072	43
3073	34
3074	45
3075	31
3076	24
3077	47
3078	32
3079	32
3080	47
3081	41
3082	32
3083	36
3084	42
3085	24
3086	30
3087	35
3088	33
3089	30
3090	30
3091	26
3092	34
3093	27
3094	31
3095	41
3096	28
3097	23
3098	40
3099	23
3100	33
3101	30
3102	33
3103	31
3104	24
3105	41
3106	38
3107	18
3108	39
3109	33
3110	31
3111	28
3112	34
3113	29
3114	34
3115	32
3116	24
3117	27
3118	39
3119	33
3120	29
3121	27
3122	34
3123	27
3124	25
3125	37
3126	28
3127	27
3128	33
3129	28
3130	39
3131	27
3132	31
3133	38
3134	28
3135	21
3136	29
3137	30
3138	28
3139	35
3140	26
3141	32
3142	29
3143	25
3144	29
3145	24
3146	30
3147	22
3148	30
3149	19
3150	22
3151	24
3152	34
3153	31
3154	40
3155	28
3156	25
3157	20
3158	33
3159	23
3160	33
3161	29
3162	33
3163	30
3164	31
3165	25
3166	22
3167	25
3168	29
3169	26
3170	28
3171	23
3172	25
3173	25
3174	25
3175	26
3176	19
3177	26
3178	37
3179	35
3180	19
3181	28
3182	23
3183	28
3184	27
3185	28
3186	23
3187	22
3188	39
3189	24
3190	30
3191	33
3192	27
3193	25
3194	27
3195	24
3196	25
3197	25
3198	23
3199	27
3200	30
3201	26
3202	25
3203	29
3204	32
3205	27
3206	24
3207	16
3208	25
3209	18
3210	23
3211	26
3212	24
3213	29
3214	30
3215	26
3216	27
3217	24
3218	24
3219	22
3220	16
3221	22
3222	21
3223	19
3224	16
3225	20
3226	24
3227	25
3228	25
3229	24
3230	17
3231	22
3232	27
3233	28
3234	34
3235	28
3236	21
3237	26
3238	25
3239	29
3240	28
3241	25
3242	26
3243	21
3244	26
3245	19
3246	22
3247	21
3248	22
3249	20
3250	33
3251	26
3252	22
3253	19
3254	31
3255	24
3256	20
3257	25
3258	30
3259	29
3260	23
3261	24
3262	23
3263	31
3264	21
3265	25
3266	34
3267	29
3268	25
3269	22
3270	22
3271	21
3272	22
3273	27
3274	24
3275	20
3276	25
3277	26
3278	27
3279	20
3280	19
3281	32
3282	17
3283	23
3284	25
3285	16
3286	27
3287	33
3288	29
3289	26
3290	29
3291	18
3292	24
3293	17
3294	21
3295	17
3296	25
3297	28
3298	21
3299	13
3300	26
3301	22
3302	23
3303	19
3304	17
3305	14
3306	26
3307	30
3308	27
3309	26
3310	28
3311	20
3312	22
3313	22
3314	19
3315	34
3316	19
3317	20
3318	24
3319	19
3320	26
3321	21
3322	23
3323	21
3324	31
3325	14
3326	17
3327	30
3328	25
3329	28
3330	21
3331	26
3332	28
3333	20
3334	26
3335	23
3336	22
3337	16
3338	23
3339	19
3340	21
3341	20
3342	21
3343	10
3344	20
3345	27
3346	14
3347	14
3348	20
3349	14
3350	18
3351	17
3352	15
3353	22
3354	20
3355	17
3356	14
3357	20
3358	22
3359	27
3360	18
3361	32
3362	15
3363	22
3364	27
3365	17
3366	27
3367	21
3368	20
3369	21
3370	24
3371	19
3372	22
3373	15
3374	26
3375	24
3376	17
3377	24
3378	16
3379	15
3380	28
3381	24
3382	16
3383	28
3384	13
3385	17
3386	16
3387	20
3388	18
3389	18
3390	21
3391	22
3392	15
3393	14
3394	17
3395	21
3396	19
3397	28
3398	22
3399	16
3400	18
3401	18
3402	24
3403	14
3404	16
3405	20
3406	20
3407	18
3408	20
3409	22
3410	21
3411	20
3412	19
3413	15
3414	26
3415	23
3416	23
3417	23
3418	18
3419	23
3420	12
3421	24
3422	19
3423	17
3424	15
3425	16
3426	16
3427	22
3428	19
3429	15
3430	20
3431	21
3432	22
3433	20
3434	29
3435	29
3436	17
3437	20
3438	15
3439	13
3440	15
3441	17
3442	19
3443	18
3444	16
3445	18
3446	20
3447	17
3448	30
3449	18
3450	21
3451	14
3452	14
3453	14
3454	17
3455	21
3456	13
3457	21
3458	20
3459	15
3460	16
3461	13
3462	14
3463	21
3464	18
3465	12
3466	17
3467	14
3468	18
3469	26
3470	19
3471	12
3472	20
3473	17
3474	20
3475	15
3476	15
3477	20
3478	11
3479	20
3480	18
3481	12
3482	11
3483	17
3484	15
3485	14
3486	25
3487	13
3488	14
3489	23
3490	18
3491	18
3492	16
