Item name: Prompt

Real time: 56.72
Live time: 29.54
Time calibration: 1.408649E-02ns/ch

Comment: 


Chan	Data
1	0
2	0
3	0
4	0
5	0
6	0
7	0
8	0
9	0
10	0
11	0
12	0
13	0
14	0
15	0
16	0
17	0
18	0
19	0
20	0
21	0
22	0
23	0
24	0
25	0
26	0
27	0
28	0
29	0
30	0
31	0
32	0
33	0
34	0
35	0
36	0
37	0
38	0
39	0
40	0
41	0
42	0
43	0
44	0
45	0
46	0
47	0
48	0
49	0
50	0
51	0
52	0
53	0
54	0
55	0
56	0
57	0
58	0
59	0
60	0
61	0
62	0
63	0
64	0
65	0
66	0
67	0
68	0
69	0
70	0
71	0
72	0
73	0
74	0
75	0
76	0
77	0
78	0
79	0
80	0
81	0
82	0
83	0
84	0
85	0
86	0
87	0
88	0
89	0
90	0
91	0
92	0
93	0
94	0
95	0
96	0
97	0
98	2
99	1
100	2
101	1
102	3
103	1
104	2
105	0
106	1
107	0
108	1
109	1
110	2
111	2
112	1
113	3
114	2
115	2
116	2
117	0
118	1
119	2
120	2
121	2
122	0
123	1
124	2
125	1
126	4
127	3
128	1
129	1
130	4
131	3
132	0
133	2
134	2
135	0
136	2
137	0
138	1
139	2
140	1
141	1
142	1
143	1
144	2
145	2
146	3
147	0
148	2
149	2
150	3
151	2
152	2
153	4
154	0
155	3
156	5
157	1
158	1
159	1
160	2
161	0
162	0
163	3
164	1
165	1
166	3
167	1
168	4
169	2
170	1
171	1
172	1
173	1
174	3
175	2
176	2
177	1
178	4
179	2
180	1
181	1
182	3
183	1
184	1
185	3
186	3
187	1
188	6
189	1
190	2
191	2
192	2
193	1
194	1
195	1
196	2
197	4
198	1
199	4
200	3
201	0
202	2
203	1
204	1
205	1
206	1
207	1
208	1
209	1
210	2
211	0
212	0
213	1
214	3
215	0
216	2
217	1
218	1
219	1
220	1
221	5
222	2
223	1
224	2
225	2
226	2
227	2
228	1
229	1
230	3
231	2
232	3
233	1
234	4
235	2
236	1
237	1
238	1
239	2
240	0
241	1
242	1
243	2
244	0
245	1
246	4
247	0
248	2
249	2
250	1
251	2
252	5
253	2
254	2
255	1
256	3
257	4
258	3
259	1
260	0
261	1
262	1
263	2
264	1
265	0
266	4
267	0
268	3
269	1
270	1
271	1
272	2
273	1
274	2
275	2
276	2
277	2
278	2
279	0
280	1
281	3
282	2
283	2
284	2
285	2
286	5
287	1
288	2
289	2
290	2
291	2
292	0
293	1
294	1
295	2
296	6
297	0
298	1
299	1
300	2
301	3
302	0
303	0
304	1
305	2
306	1
307	3
308	2
309	1
310	0
311	1
312	5
313	1
314	1
315	1
316	0
317	1
318	1
319	1
320	2
321	2
322	3
323	2
324	4
325	4
326	1
327	2
328	3
329	3
330	0
331	3
332	4
333	2
334	4
335	0
336	3
337	1
338	1
339	2
340	1
341	2
342	0
343	1
344	0
345	1
346	4
347	6
348	2
349	4
350	3
351	3
352	4
353	1
354	1
355	0
356	3
357	1
358	3
359	0
360	2
361	2
362	5
363	0
364	4
365	3
366	2
367	3
368	3
369	1
370	5
371	1
372	4
373	2
374	0
375	1
376	5
377	1
378	2
379	5
380	3
381	0
382	2
383	0
384	1
385	2
386	4
387	4
388	0
389	4
390	1
391	0
392	5
393	3
394	3
395	2
396	3
397	3
398	2
399	0
400	1
401	1
402	2
403	1
404	1
405	1
406	0
407	4
408	2
409	3
410	2
411	1
412	0
413	1
414	1
415	2
416	1
417	0
418	3
419	1
420	1
421	1
422	2
423	0
424	1
425	3
426	1
427	2
428	1
429	0
430	3
431	1
432	1
433	1
434	1
435	1
436	0
437	2
438	0
439	0
440	2
441	1
442	2
443	1
444	0
445	1
446	2
447	1
448	2
449	2
450	2
451	4
452	0
453	1
454	2
455	1
456	2
457	1
458	0
459	0
460	0
461	1
462	0
463	4
464	0
465	1
466	0
467	1
468	1
469	3
470	1
471	0
472	0
473	1
474	3
475	2
476	2
477	4
478	5
479	1
480	3
481	3
482	1
483	1
484	2
485	2
486	1
487	2
488	4
489	5
490	12
491	8
492	13
493	14
494	24
495	18
496	30
497	49
498	38
499	64
500	69
501	76
502	72
503	123
504	136
505	181
506	224
507	249
508	323
509	410
510	526
511	629
512	858
513	1029
514	1316
515	1758
516	2271
517	3113
518	3937
519	5047
520	6626
521	8583
522	11118
523	14029
524	17865
525	22364
526	27353
527	33658
528	39990
529	47440
530	55571
531	63444
532	71337
533	78485
534	85462
535	91421
536	95515
537	98903
538	100122
539	99938
540	98115
541	94427
542	89455
543	83422
544	77890
545	71266
546	63851
547	57555
548	51186
549	44695
550	39072
551	34170
552	29810
553	25784
554	22377
555	19560
556	16925
557	14888
558	13190
559	11447
560	10295
561	9000
562	8119
563	7311
564	6526
565	5801
566	5338
567	4856
568	4541
569	3998
570	3716
571	3405
572	3194
573	2905
574	2632
575	2446
576	2225
577	2153
578	1873
579	1747
580	1660
581	1525
582	1468
583	1323
584	1243
585	1232
586	1150
587	1016
588	1015
589	1006
590	909
591	901
592	835
593	793
594	731
595	778
596	680
597	673
598	678
599	655
600	631
601	603
602	631
603	612
604	592
605	580
606	534
607	591
608	594
609	600
610	562
611	598
612	582
613	556
614	607
615	598
616	606
617	625
618	695
619	700
620	722
621	754
622	825
623	870
624	886
625	940
626	960
627	1000
628	1076
629	1026
630	1055
631	1099
632	1052
633	1001
634	1049
635	1014
636	1037
637	927
638	898
639	874
640	875
641	767
642	742
643	745
644	691
645	587
646	560
647	502
648	501
649	453
650	419
651	387
652	345
653	362
654	306
655	262
656	273
657	252
658	237
659	234
660	211
661	196
662	200
663	175
664	153
665	116
666	142
667	130
668	117
669	111
670	109
671	84
672	96
673	74
674	78
675	68
676	81
677	68
678	67
679	67
680	51
681	47
682	47
683	49
684	37
685	34
686	36
687	37
688	39
689	21
690	34
691	38
692	21
693	44
694	25
695	31
696	36
697	29
698	28
699	33
700	22
701	19
702	25
703	18
704	25
705	24
706	15
707	20
708	28
709	24
710	26
711	15
712	30
713	20
714	25
715	18
716	27
717	26
718	32
719	23
720	19
721	18
722	21
723	17
724	16
725	20
726	23
727	22
728	18
729	17
730	19
731	15
732	11
733	16
734	13
735	21
736	16
737	20
738	14
739	14
740	21
741	22
742	11
743	11
744	13
745	13
746	8
747	13
748	10
749	20
750	11
751	11
752	12
753	18
754	9
755	6
756	17
757	15
758	15
759	6
760	13
761	6
762	10
763	6
764	9
765	3
766	10
767	8
768	11
769	2
770	8
771	6
772	3
773	2
774	9
775	0
776	3
777	3
778	14
779	6
780	12
781	9
782	3
783	3
784	3
785	5
786	5
787	9
788	4
789	5
790	9
791	8
792	3
793	8
794	6
795	9
796	6
797	1
798	7
799	5
800	2
801	3
802	5
803	4
804	8
805	5
806	8
807	4
808	7
809	5
810	5
811	4
812	5
813	8
814	8
815	4
816	4
817	7
818	5
819	3
820	4
821	2
822	4
823	5
824	3
825	5
826	7
827	6
828	5
829	4
830	2
831	3
832	4
833	6
834	6
835	1
836	3
837	2
838	1
839	2
840	9
841	6
842	6
843	5
844	2
845	3
846	5
847	9
848	2
849	7
850	3
851	6
852	5
853	7
854	4
855	3
856	4
857	6
858	5
859	4
860	6
861	3
862	7
863	2
864	5
865	10
866	1
867	6
868	3
869	7
870	1
871	3
872	4
873	4
874	1
875	5
876	6
877	8
878	4
879	4
880	5
881	3
882	11
883	7
884	4
885	6
886	6
887	2
888	4
889	7
890	5
891	3
892	4
893	4
894	4
895	6
896	9
897	4
898	11
899	4
900	8
901	6
902	5
903	4
904	10
905	6
906	5
907	9
908	6
909	6
910	5
911	2
912	2
913	8
914	8
915	5
916	5
917	7
918	6
919	7
920	6
921	6
922	8
923	3
924	7
925	6
926	8
927	8
928	10
929	14
930	4
931	8
932	5
933	11
934	8
935	7
936	7
937	8
938	10
939	3
940	11
941	11
942	8
943	7
944	11
945	11
946	6
947	8
948	11
949	7
950	6
951	7
952	6
953	10
954	9
955	1
956	7
957	9
958	8
959	11
960	7
961	8
962	10
963	11
964	8
965	3
966	7
967	6
968	7
969	5
970	8
971	11
972	10
973	5
974	9
975	10
976	8
977	6
978	7
979	6
980	6
981	11
982	3
983	7
984	10
985	10
986	6
987	7
988	9
989	6
990	6
991	8
992	8
993	9
994	9
995	9
996	10
997	11
998	10
999	4
1000	8
1001	9
1002	4
1003	3
1004	3
1005	14
1006	7
1007	4
1008	10
1009	10
1010	6
1011	2
1012	11
1013	10
1014	9
1015	9
1016	6
1017	7
1018	8
1019	4
1020	13
1021	3
1022	8
1023	7
1024	7
1025	8
1026	11
1027	9
1028	2
1029	5
1030	10
1031	5
1032	6
1033	6
1034	6
1035	10
1036	5
1037	10
1038	7
1039	4
1040	6
1041	5
1042	10
1043	8
1044	9
1045	9
1046	8
1047	4
1048	10
1049	8
1050	8
1051	6
1052	6
1053	11
1054	9
1055	7
1056	8
1057	9
1058	7
1059	9
1060	8
1061	10
1062	9
1063	7
1064	3
1065	11
1066	6
1067	5
1068	9
1069	6
1070	7
1071	7
1072	8
1073	8
1074	9
1075	7
1076	4
1077	7
1078	7
1079	7
1080	10
1081	5
1082	7
1083	6
1084	8
1085	8
1086	8
1087	9
1088	6
1089	7
1090	10
1091	5
1092	6
1093	3
1094	3
1095	6
1096	7
1097	3
1098	9
1099	4
1100	7
1101	8
1102	6
1103	4
1104	3
1105	1
1106	6
1107	8
1108	4
1109	3
1110	6
1111	3
1112	7
1113	6
1114	6
1115	9
1116	6
1117	4
1118	4
1119	3
1120	9
1121	3
1122	5
1123	5
1124	6
1125	3
1126	3
1127	8
1128	2
1129	7
1130	5
1131	1
1132	6
1133	2
1134	10
1135	7
1136	5
1137	4
1138	7
1139	9
1140	6
1141	6
1142	3
1143	6
1144	5
1145	7
1146	1
1147	3
1148	4
1149	10
1150	1
1151	7
1152	10
1153	8
1154	6
1155	5
1156	6
1157	8
1158	4
1159	6
1160	4
1161	9
1162	6
1163	5
1164	4
1165	7
1166	4
1167	3
1168	10
1169	4
1170	4
1171	4
1172	2
1173	8
1174	1
1175	4
1176	8
1177	4
1178	5
1179	4
1180	4
1181	5
1182	3
1183	5
1184	5
1185	5
1186	2
1187	4
1188	1
1189	6
1190	4
1191	3
1192	0
1193	6
1194	3
1195	4
1196	3
1197	3
1198	7
1199	4
1200	5
1201	5
1202	5
1203	3
1204	5
1205	5
1206	5
1207	2
1208	9
1209	4
1210	1
1211	2
1212	4
1213	2
1214	3
1215	3
1216	4
1217	3
1218	6
1219	4
1220	4
1221	6
1222	5
1223	8
1224	5
1225	3
1226	3
1227	6
1228	4
1229	4
1230	3
1231	6
1232	1
1233	4
1234	5
1235	4
1236	4
1237	0
1238	4
1239	2
1240	2
1241	5
1242	4
1243	2
1244	4
1245	4
1246	5
1247	4
1248	6
1249	2
1250	1
1251	0
1252	2
1253	2
1254	5
1255	6
1256	2
1257	7
1258	3
1259	4
1260	5
1261	1
1262	0
1263	2
1264	1
1265	3
1266	3
1267	1
1268	4
1269	3
1270	2
1271	5
1272	4
1273	4
1274	4
1275	0
1276	3
1277	2
1278	6
1279	3
1280	2
1281	5
1282	1
1283	4
1284	3
1285	6
1286	2
1287	4
1288	4
1289	2
1290	2
1291	6
1292	4
1293	5
1294	0
1295	1
1296	6
1297	2
1298	2
1299	3
1300	3
1301	1
1302	3
1303	4
1304	1
1305	1
1306	2
1307	2
1308	1
1309	4
1310	6
1311	4
1312	7
1313	5
1314	2
1315	1
1316	3
1317	5
1318	1
1319	6
1320	2
1321	5
1322	1
1323	1
1324	4
1325	3
1326	3
1327	3
1328	7
1329	2
1330	4
1331	0
1332	5
1333	2
1334	2
1335	1
1336	4
1337	6
1338	3
1339	3
1340	3
1341	4
1342	1
1343	3
1344	2
1345	7
1346	3
1347	1
1348	0
1349	3
1350	6
1351	4
1352	3
1353	1
1354	4
1355	3
1356	3
1357	1
1358	3
1359	0
1360	2
1361	3
1362	0
1363	2
1364	5
1365	3
1366	3
1367	1
1368	7
1369	1
1370	3
1371	2
1372	4
1373	3
1374	1
1375	4
1376	6
1377	5
1378	0
1379	5
1380	1
1381	1
1382	4
1383	1
1384	1
1385	1
1386	2
1387	2
1388	5
1389	1
1390	2
1391	4
1392	3
1393	2
1394	1
1395	4
1396	4
1397	5
1398	3
1399	1
1400	4
1401	3
1402	3
1403	2
1404	2
1405	3
1406	1
1407	1
1408	2
1409	2
1410	4
1411	2
1412	3
1413	4
1414	3
1415	2
1416	1
1417	2
1418	3
1419	3
1420	4
1421	4
1422	4
1423	3
1424	2
1425	1
1426	0
1427	3
1428	2
1429	1
1430	4
1431	2
1432	2
1433	3
1434	2
1435	4
1436	3
1437	3
1438	2
1439	4
1440	4
1441	3
1442	5
1443	4
1444	0
1445	3
1446	5
1447	1
1448	0
1449	4
1450	4
1451	5
1452	6
1453	2
1454	2
1455	6
1456	3
1457	1
1458	5
1459	3
1460	4
1461	4
1462	1
1463	1
1464	1
1465	2
1466	3
1467	3
1468	4
1469	4
1470	6
1471	1
1472	3
1473	2
1474	2
1475	3
1476	0
1477	4
1478	2
1479	1
1480	2
1481	5
1482	2
1483	1
1484	3
1485	3
1486	1
1487	3
1488	2
1489	2
1490	2
1491	4
1492	4
1493	0
1494	3
1495	2
1496	2
1497	2
1498	1
1499	6
1500	1
1501	1
1502	1
1503	2
1504	4
1505	2
1506	3
1507	4
1508	5
1509	1
1510	0
1511	4
1512	2
1513	2
1514	6
1515	1
1516	2
1517	4
1518	1
1519	5
1520	3
1521	3
1522	3
1523	1
1524	5
1525	1
1526	5
1527	1
1528	3
1529	2
1530	1
1531	2
1532	4
1533	4
1534	3
1535	4
1536	6
1537	0
1538	1
1539	4
1540	4
1541	4
1542	2
1543	3
1544	2
1545	2
1546	4
1547	1
1548	1
1549	0
1550	3
1551	8
1552	2
1553	5
1554	4
1555	1
1556	2
1557	5
1558	7
1559	3
1560	3
1561	3
1562	2
1563	4
1564	2
1565	6
1566	3
1567	0
1568	6
1569	4
1570	3
1571	2
1572	3
1573	1
1574	3
1575	8
1576	3
1577	3
1578	0
1579	2
1580	3
1581	4
1582	5
1583	4
1584	4
1585	5
1586	3
1587	3
1588	3
1589	2
1590	3
1591	7
1592	2
1593	4
1594	3
1595	2
1596	4
1597	3
1598	1
1599	2
1600	1
1601	3
1602	5
1603	4
1604	5
1605	3
1606	2
1607	3
1608	3
1609	5
1610	4
1611	2
1612	3
1613	2
1614	2
1615	10
1616	2
1617	1
1618	3
1619	7
1620	4
1621	3
1622	4
1623	4
1624	1
1625	3
1626	1
1627	3
1628	3
1629	0
1630	6
1631	0
1632	2
1633	4
1634	3
1635	4
1636	6
1637	3
1638	2
1639	4
1640	3
1641	2
1642	5
1643	5
1644	3
1645	2
1646	2
1647	2
1648	2
1649	4
1650	4
1651	4
1652	3
1653	2
1654	2
1655	2
1656	1
1657	5
1658	3
1659	4
1660	1
1661	5
1662	0
1663	4
1664	4
1665	3
1666	4
1667	4
1668	6
1669	8
1670	8
1671	1
1672	4
1673	4
1674	6
1675	4
1676	3
1677	2
1678	2
1679	2
1680	4
1681	3
1682	7
1683	4
1684	3
1685	3
1686	6
1687	1
1688	3
1689	3
1690	4
1691	5
1692	2
1693	2
1694	6
1695	4
1696	4
1697	4
1698	4
1699	5
1700	6
1701	6
1702	2
1703	5
1704	4
1705	3
1706	2
1707	4
1708	4
1709	2
1710	6
1711	3
1712	4
1713	4
1714	5
1715	2
1716	4
1717	5
1718	1
1719	4
1720	3
1721	6
1722	7
1723	1
1724	3
1725	2
1726	5
1727	10
1728	4
1729	3
1730	7
1731	3
1732	4
1733	5
1734	3
1735	7
1736	5
1737	2
1738	2
1739	0
1740	4
1741	4
1742	3
1743	5
1744	3
1745	3
1746	3
1747	3
1748	2
1749	5
1750	3
1751	3
1752	4
1753	6
1754	2
1755	5
1756	1
1757	3
1758	4
1759	3
1760	2
1761	3
1762	2
1763	5
1764	3
1765	5
1766	3
1767	2
1768	7
1769	2
1770	5
1771	1
1772	6
1773	5
1774	2
1775	5
1776	1
1777	5
1778	2
1779	4
1780	1
1781	2
1782	4
1783	3
1784	4
1785	4
1786	1
1787	5
1788	2
1789	7
1790	4
1791	3
1792	1
1793	4
1794	5
1795	6
1796	6
1797	5
1798	4
1799	2
1800	1
1801	2
1802	6
1803	2
1804	3
1805	1
1806	4
1807	4
1808	4
1809	3
1810	3
1811	8
1812	2
1813	3
1814	7
1815	5
1816	5
1817	1
1818	6
1819	1
1820	1
1821	4
1822	2
1823	7
1824	4
1825	3
1826	4
1827	3
1828	3
1829	4
1830	6
1831	4
1832	0
1833	5
1834	4
1835	5
1836	6
1837	5
1838	0
1839	4
1840	6
1841	4
1842	2
1843	6
1844	2
1845	3
1846	7
1847	6
1848	2
1849	5
1850	4
1851	2
1852	2
1853	4
1854	5
1855	2
1856	0
1857	1
1858	0
1859	4
1860	3
1861	5
1862	4
1863	2
1864	2
1865	1
1866	0
1867	5
1868	4
1869	4
1870	3
1871	3
1872	0
1873	5
1874	3
1875	4
1876	3
1877	2
1878	2
1879	3
1880	4
1881	5
1882	1
1883	9
1884	2
1885	2
1886	2
1887	5
1888	2
1889	6
1890	4
1891	4
1892	3
1893	4
1894	1
1895	2
1896	3
1897	3
1898	2
1899	3
1900	5
1901	3
1902	5
1903	1
1904	6
1905	1
1906	3
1907	4
1908	6
1909	0
1910	3
1911	3
1912	5
1913	3
1914	9
1915	3
1916	3
1917	5
1918	1
1919	4
1920	6
1921	2
1922	2
1923	3
1924	2
1925	3
1926	3
1927	2
1928	5
1929	0
1930	4
1931	5
1932	4
1933	5
1934	1
1935	1
1936	5
1937	4
1938	4
1939	4
1940	2
1941	4
1942	2
1943	1
1944	4
1945	4
1946	0
1947	4
1948	4
1949	1
1950	5
1951	2
1952	5
1953	4
1954	2
1955	5
1956	3
1957	3
1958	2
1959	3
1960	8
1961	2
1962	2
1963	4
1964	5
1965	1
1966	3
1967	2
1968	4
1969	2
1970	4
1971	3
1972	2
1973	1
1974	4
1975	5
1976	0
1977	3
1978	4
1979	0
1980	3
1981	3
1982	1
1983	1
1984	2
1985	4
1986	6
1987	8
1988	3
1989	1
1990	5
1991	3
1992	1
1993	2
1994	4
1995	3
1996	5
1997	3
1998	4
1999	2
2000	1
2001	1
2002	8
2003	4
2004	4
2005	2
2006	3
2007	6
2008	4
2009	1
2010	3
2011	6
2012	3
2013	2
2014	5
2015	5
2016	2
2017	2
2018	2
2019	3
2020	3
2021	4
2022	0
2023	4
2024	3
2025	2
2026	0
2027	5
2028	4
2029	2
2030	3
2031	5
2032	4
2033	11
2034	0
2035	4
2036	3
2037	3
2038	10
2039	5
2040	9
2041	2
2042	2
2043	5
2044	4
2045	6
2046	8
2047	4
2048	6
2049	10
2050	4
2051	6
2052	3
2053	4
2054	6
2055	9
2056	5
2057	7
2058	11
2059	7
2060	5
2061	9
2062	4
2063	5
2064	10
2065	4
2066	4
2067	7
2068	7
2069	11
2070	11
2071	6
2072	9
2073	5
2074	12
2075	14
2076	10
2077	9
2078	15
2079	14
2080	16
2081	10
2082	16
2083	15
2084	14
2085	17
2086	12
2087	19
2088	9
2089	16
2090	16
2091	21
2092	17
2093	18
2094	19
2095	17
2096	20
2097	21
2098	18
2099	20
2100	20
2101	19
2102	16
2103	24
2104	25
2105	16
2106	14
2107	16
2108	22
2109	29
2110	28
2111	28
2112	29
2113	20
2114	21
2115	18
2116	19
2117	36
2118	24
2119	35
2120	30
2121	35
2122	34
2123	25
2124	29
2125	36
2126	32
2127	35
2128	35
2129	32
2130	29
2131	33
2132	46
2133	41
2134	34
2135	36
2136	30
2137	39
2138	32
2139	37
2140	42
2141	32
2142	31
2143	35
2144	36
2145	40
2146	46
2147	45
2148	36
2149	42
2150	44
2151	42
2152	34
2153	33
2154	43
2155	30
2156	48
2157	30
2158	34
2159	42
2160	33
2161	23
2162	34
2163	37
2164	41
2165	37
2166	30
2167	28
2168	38
2169	31
2170	30
2171	43
2172	35
2173	45
2174	29
2175	34
2176	31
2177	34
2178	31
2179	38
2180	29
2181	26
2182	22
2183	28
2184	28
2185	23
2186	19
2187	35
2188	28
2189	26
2190	29
2191	24
2192	26
2193	30
2194	24
2195	40
2196	20
2197	24
2198	25
2199	24
2200	34
2201	25
2202	25
2203	22
2204	23
2205	23
2206	22
2207	12
2208	33
2209	29
2210	24
2211	22
2212	15
2213	18
2214	23
2215	23
2216	26
2217	20
2218	23
2219	21
2220	19
2221	26
2222	29
2223	20
2224	22
2225	22
2226	14
2227	15
2228	13
2229	15
2230	15
2231	19
2232	14
2233	15
2234	16
2235	19
2236	23
2237	7
2238	16
2239	16
2240	17
2241	13
2242	24
2243	19
2244	13
2245	17
2246	14
2247	9
2248	29
2249	18
2250	17
2251	11
2252	14
2253	23
2254	11
2255	13
2256	22
2257	19
2258	20
2259	10
2260	24
2261	16
2262	12
2263	17
2264	21
2265	17
2266	16
2267	17
2268	8
2269	17
2270	15
2271	16
2272	14
2273	21
2274	16
2275	15
2276	12
2277	15
2278	13
2279	11
2280	12
2281	13
2282	17
2283	7
2284	12
2285	17
2286	15
2287	8
2288	19
2289	15
2290	11
2291	14
2292	13
2293	11
2294	11
2295	10
2296	15
2297	11
2298	11
2299	20
2300	13
2301	16
2302	13
2303	11
2304	14
2305	16
2306	10
2307	8
2308	13
2309	11
2310	5
2311	17
2312	11
2313	16
2314	18
2315	11
2316	9
2317	16
2318	12
2319	9
2320	15
2321	12
2322	10
2323	18
2324	10
2325	13
2326	15
2327	14
2328	10
2329	11
2330	15
2331	10
2332	9
2333	12
2334	12
2335	13
2336	12
2337	8
2338	14
2339	9
2340	12
2341	15
2342	13
2343	20
2344	9
2345	6
2346	10
2347	11
2348	19
2349	8
2350	10
2351	9
2352	6
2353	8
2354	11
2355	11
2356	9
2357	6
2358	6
2359	7
2360	10
2361	17
2362	11
2363	9
2364	10
2365	5
2366	9
2367	9
2368	10
2369	12
2370	8
2371	9
2372	16
2373	8
2374	14
2375	9
2376	13
2377	10
2378	12
2379	13
2380	11
2381	14
2382	16
2383	8
2384	9
2385	13
2386	9
2387	10
2388	6
2389	11
2390	12
2391	3
2392	10
2393	9
2394	10
2395	9
2396	9
2397	10
2398	11
2399	12
2400	11
2401	9
2402	15
2403	10
2404	16
2405	13
2406	9
2407	7
2408	9
2409	10
2410	14
2411	8
2412	11
2413	14
2414	11
2415	8
2416	5
2417	11
2418	8
2419	8
2420	8
2421	5
2422	10
2423	10
2424	12
2425	13
2426	16
2427	14
2428	7
2429	17
2430	10
2431	11
2432	11
2433	7
2434	11
2435	15
2436	9
2437	10
2438	7
2439	11
2440	15
2441	3
2442	11
2443	10
2444	6
2445	7
2446	6
2447	10
2448	16
2449	14
2450	17
2451	8
2452	8
2453	15
2454	8
2455	7
2456	10
2457	7
2458	12
2459	13
2460	12
2461	8
2462	18
2463	8
2464	13
2465	13
2466	11
2467	12
2468	10
2469	13
2470	18
2471	11
2472	8
2473	7
2474	10
2475	13
2476	6
2477	12
2478	14
2479	9
2480	10
2481	10
2482	15
2483	14
2484	16
2485	8
2486	8
2487	9
2488	11
2489	10
2490	8
2491	13
2492	15
2493	12
2494	13
2495	11
2496	12
2497	9
2498	13
2499	8
2500	6
2501	17
2502	8
2503	12
2504	10
2505	7
2506	16
2507	15
2508	5
2509	12
2510	12
2511	8
2512	10
2513	6
2514	15
2515	10
2516	9
2517	13
2518	9
2519	11
2520	14
2521	11
2522	15
2523	13
2524	10
2525	11
2526	14
2527	17
2528	11
2529	12
2530	16
2531	9
2532	8
2533	9
2534	13
2535	10
2536	10
2537	12
2538	10
2539	12
2540	9
2541	9
2542	10
2543	11
2544	12
2545	10
2546	16
2547	12
2548	15
2549	5
2550	8
2551	9
2552	7
2553	12
2554	10
2555	10
2556	11
2557	1
2558	7
2559	11
2560	10
2561	14
2562	10
2563	20
2564	9
2565	11
2566	9
2567	15
2568	14
2569	15
2570	10
2571	14
2572	3
2573	6
2574	9
2575	9
2576	10
2577	8
2578	10
2579	12
2580	15
2581	15
2582	11
2583	9
2584	10
2585	8
2586	12
2587	7
2588	11
2589	12
2590	7
2591	10
2592	10
2593	7
2594	11
2595	10
2596	11
2597	10
2598	6
2599	6
2600	15
2601	8
2602	5
2603	11
2604	11
2605	9
2606	10
2607	13
2608	12
2609	13
2610	8
2611	12
2612	11
2613	15
2614	8
2615	9
2616	6
2617	11
2618	9
2619	8
2620	10
2621	10
2622	9
2623	4
2624	9
2625	13
2626	14
2627	5
2628	11
2629	4
2630	6
2631	6
2632	5
2633	13
2634	8
2635	10
2636	8
2637	7
2638	5
2639	13
2640	13
2641	6
2642	8
2643	8
2644	13
2645	6
2646	10
2647	7
2648	7
2649	13
2650	6
2651	6
2652	9
2653	13
2654	6
2655	13
2656	15
2657	9
2658	12
2659	6
2660	10
2661	10
2662	11
2663	7
2664	6
2665	3
2666	11
2667	9
2668	5
2669	9
2670	5
2671	4
2672	13
2673	10
2674	5
2675	4
2676	4
2677	11
2678	10
2679	9
2680	9
2681	6
2682	15
2683	5
2684	7
2685	9
2686	7
2687	7
2688	8
2689	8
2690	8
2691	7
2692	9
2693	5
2694	8
2695	10
2696	3
2697	7
2698	8
2699	9
2700	5
2701	6
2702	5
2703	9
2704	5
2705	7
2706	6
2707	6
2708	7
2709	11
2710	6
2711	1
2712	4
2713	7
2714	9
2715	8
2716	5
2717	7
2718	4
2719	2
2720	5
2721	6
2722	10
2723	12
2724	5
2725	5
2726	5
2727	6
2728	8
2729	10
2730	5
2731	3
2732	6
2733	9
2734	6
2735	3
2736	5
2737	6
2738	4
2739	7
2740	6
2741	9
2742	5
2743	4
2744	10
2745	5
2746	5
2747	8
2748	5
2749	4
2750	7
2751	5
2752	9
2753	10
2754	7
2755	7
2756	6
2757	3
2758	8
2759	4
2760	7
2761	9
2762	5
2763	3
2764	9
2765	6
2766	4
2767	6
2768	8
2769	6
2770	7
2771	4
2772	3
2773	7
2774	6
2775	9
2776	8
2777	5
2778	12
2779	6
2780	3
2781	10
2782	2
2783	4
2784	6
2785	8
2786	7
2787	2
2788	5
2789	6
2790	3
2791	5
2792	5
2793	7
2794	8
2795	5
2796	8
2797	7
2798	6
2799	9
2800	6
2801	6
2802	5
2803	4
2804	5
2805	9
2806	10
2807	8
2808	6
2809	6
2810	3
2811	5
2812	6
2813	6
2814	5
2815	3
2816	6
2817	5
2818	6
2819	5
2820	6
2821	7
2822	3
2823	5
2824	7
2825	4
2826	4
2827	7
2828	4
2829	6
2830	5
2831	3
2832	5
2833	7
2834	6
2835	6
2836	7
2837	6
2838	4
2839	4
2840	4
2841	3
2842	4
2843	8
2844	5
2845	4
2846	6
2847	2
2848	5
2849	5
2850	11
2851	2
2852	1
2853	7
2854	4
2855	5
2856	5
2857	6
2858	2
2859	4
2860	3
2861	3
2862	2
2863	9
2864	2
2865	8
2866	3
2867	3
2868	3
2869	5
2870	3
2871	9
2872	4
2873	4
2874	5
2875	2
2876	3
2877	1
2878	7
2879	2
2880	4
2881	5
2882	6
2883	9
2884	7
2885	5
2886	1
2887	9
2888	5
2889	3
2890	4
2891	5
2892	4
2893	0
2894	6
2895	3
2896	3
2897	7
2898	4
2899	8
2900	1
2901	8
2902	6
2903	2
2904	5
2905	3
2906	6
2907	3
2908	4
2909	1
2910	7
2911	3
2912	6
2913	4
2914	3
2915	2
2916	3
2917	5
2918	4
2919	4
2920	6
2921	7
2922	1
2923	9
2924	3
2925	4
2926	5
2927	3
2928	3
2929	3
2930	4
2931	4
2932	2
2933	4
2934	3
2935	3
2936	4
2937	6
2938	4
2939	0
2940	4
2941	7
2942	5
2943	4
2944	4
2945	1
2946	2
2947	5
2948	4
2949	7
2950	6
2951	4
2952	6
2953	3
2954	1
2955	6
2956	2
2957	1
2958	4
2959	5
2960	2
2961	5
2962	2
2963	2
2964	2
2965	5
2966	3
2967	3
2968	3
2969	4
2970	7
2971	5
2972	3
2973	5
2974	3
2975	5
2976	2
2977	8
2978	5
2979	3
2980	5
2981	1
2982	3
2983	5
2984	5
2985	6
2986	2
2987	6
2988	1
2989	4
2990	0
2991	2
2992	4
2993	7
2994	5
2995	6
2996	3
2997	4
2998	4
2999	8
3000	5
3001	3
3002	3
3003	5
3004	1
3005	6
3006	4
3007	3
3008	4
3009	4
3010	3
3011	5
3012	3
3013	4
3014	5
3015	6
3016	3
3017	1
3018	7
3019	11
3020	2
3021	3
3022	3
3023	4
3024	4
3025	4
3026	0
3027	5
3028	1
3029	5
3030	4
3031	3
3032	1
3033	5
3034	3
3035	5
3036	4
3037	3
3038	4
3039	1
3040	3
3041	3
3042	4
3043	3
3044	5
3045	2
3046	3
3047	1
3048	2
3049	6
3050	3
3051	2
3052	4
3053	3
3054	7
3055	1
3056	4
3057	1
3058	2
3059	0
3060	2
3061	2
3062	6
3063	3
3064	3
3065	3
3066	6
3067	3
3068	5
3069	4
3070	1
3071	1
3072	1
3073	3
3074	1
3075	7
3076	4
3077	8
3078	5
3079	4
3080	7
3081	1
3082	5
3083	8
3084	2
3085	0
3086	2
3087	4
3088	4
3089	3
3090	3
3091	3
3092	3
3093	3
3094	1
3095	5
3096	4
3097	2
3098	3
3099	7
3100	2
3101	5
3102	2
3103	1
3104	3
3105	2
3106	2
3107	2
3108	3
3109	1
3110	6
3111	3
3112	3
3113	2
3114	4
3115	1
3116	2
3117	1
3118	1
3119	3
3120	4
3121	0
3122	7
3123	1
3124	2
3125	3
3126	3
3127	8
3128	2
3129	3
3130	3
3131	6
3132	4
3133	5
3134	2
3135	3
3136	4
3137	3
3138	4
3139	3
3140	3
3141	5
3142	3
3143	1
3144	2
3145	3
3146	1
3147	2
3148	5
3149	2
3150	4
3151	0
3152	3
3153	1
3154	5
3155	3
3156	5
3157	5
3158	3
3159	3
3160	5
3161	2
3162	1
3163	2
3164	8
3165	2
3166	2
3167	2
3168	2
3169	3
3170	4
3171	1
3172	4
3173	3
3174	5
3175	5
3176	2
3177	3
3178	4
3179	2
3180	3
3181	5
3182	3
3183	5
3184	5
3185	3
3186	4
3187	3
3188	1
3189	4
3190	5
3191	6
3192	3
3193	1
3194	4
3195	3
3196	4
3197	2
3198	5
3199	6
3200	4
3201	2
3202	2
3203	4
3204	4
3205	7
3206	9
3207	2
3208	3
3209	0
3210	3
3211	2
3212	9
3213	4
3214	4
3215	3
3216	3
3217	3
3218	2
3219	4
3220	4
3221	2
3222	0
3223	1
3224	3
3225	3
3226	2
3227	3
3228	4
3229	4
3230	1
3231	7
3232	6
3233	0
3234	2
3235	0
3236	4
3237	3
3238	1
3239	5
3240	1
3241	5
3242	2
3243	3
3244	4
3245	2
3246	7
3247	6
3248	4
3249	7
3250	4
3251	2
3252	1
3253	1
3254	4
3255	4
3256	3
3257	4
3258	2
3259	4
3260	1
3261	0
3262	0
3263	4
3264	1
3265	4
3266	4
3267	1
3268	5
3269	0
3270	2
3271	3
3272	0
3273	3
3274	10
3275	4
3276	8
3277	3
3278	3
3279	0
3280	2
3281	7
3282	2
3283	3
3284	1
3285	1
3286	1
3287	3
3288	2
3289	1
3290	4
3291	2
3292	3
3293	2
3294	3
3295	5
3296	5
3297	6
3298	0
3299	3
3300	8
3301	6
3302	3
3303	3
3304	2
3305	1
3306	3
3307	4
3308	3
3309	3
3310	1
3311	2
3312	2
3313	3
3314	2
3315	1
3316	2
3317	2
3318	2
3319	3
3320	3
3321	1
3322	3
3323	4
3324	4
3325	2
3326	1
3327	3
3328	1
3329	1
3330	7
3331	3
3332	3
3333	1
3334	2
3335	5
3336	4
3337	5
3338	1
3339	2
3340	3
3341	2
3342	2
3343	2
3344	1
3345	3
3346	4
3347	2
3348	2
3349	0
3350	5
3351	2
3352	5
3353	1
3354	4
3355	2
3356	5
3357	2
3358	2
3359	5
3360	4
3361	2
3362	0
3363	0
3364	5
3365	0
3366	1
3367	5
3368	1
3369	2
3370	2
3371	2
3372	2
3373	3
3374	1
3375	3
3376	4
3377	2
3378	1
3379	2
3380	1
3381	3
3382	3
3383	1
3384	3
3385	2
3386	2
3387	3
3388	2
3389	4
3390	4
3391	4
3392	1
3393	2
3394	2
3395	2
3396	3
3397	1
3398	2
3399	0
3400	0
3401	4
3402	0
3403	1
3404	3
3405	4
3406	5
3407	1
3408	1
3409	1
3410	4
3411	4
3412	5
3413	2
3414	3
3415	2
3416	4
3417	5
3418	0
3419	4
3420	2
3421	1
3422	2
3423	3
3424	5
3425	1
3426	7
3427	0
3428	4
3429	1
3430	1
3431	1
3432	3
3433	4
3434	4
3435	2
3436	5
3437	1
3438	4
3439	3
3440	3
3441	2
3442	0
3443	3
3444	5
3445	3
3446	2
3447	3
3448	1
3449	6
3450	1
3451	3
3452	0
3453	1
3454	4
3455	2
3456	2
3457	5
3458	4
3459	2
3460	6
3461	1
3462	2
3463	0
3464	2
3465	2
3466	1
3467	2
3468	2
3469	2
3470	4
3471	3
3472	2
3473	0
3474	1
3475	4
3476	1
3477	3
3478	4
3479	2
3480	1
3481	1
3482	4
3483	3
3484	4
3485	1
3486	2
3487	3
3488	3
3489	2
3490	2
3491	1
3492	3
3493	2
3494	2
3495	5
3496	5
3497	2
3498	1
3499	2
3500	6
3501	4
3502	0
3503	4
3504	3
3505	2
3506	7
3507	4
3508	4
3509	2
3510	2
3511	1
3512	1
3513	1
3514	1
3515	3
3516	2
3517	3
3518	1
3519	1
3520	5
3521	3
3522	4
3523	2
3524	1
3525	0
3526	3
3527	1
3528	1
3529	1
3530	1
3531	1
3532	1
3533	3
3534	3
3535	2
3536	4
3537	2
3538	0
3539	1
3540	5
3541	1
3542	2
3543	2
3544	2
3545	3
3546	3
3547	7
3548	0
3549	2
3550	2
3551	2
3552	2
3553	5
3554	2
3555	4
3556	4
3557	2
3558	4
3559	2
3560	3
3561	4
3562	4
3563	7
3564	2
3565	1
3566	4
3567	1
3568	2
3569	1
3570	3
3571	1
3572	1
3573	3
3574	5
3575	1
3576	5
3577	3
3578	2
3579	3
3580	3
3581	2
3582	1
3583	1
3584	6
3585	3
3586	4
3587	4
3588	3
3589	1
3590	2
3591	2
3592	0
3593	4
3594	1
3595	2
3596	4
3597	4
3598	2
3599	2
3600	5
3601	2
3602	1
3603	2
3604	2
3605	2
3606	1
3607	2
3608	3
3609	1
3610	2
3611	2
3612	0
3613	0
3614	4
3615	2
3616	3
3617	3
3618	2
3619	4
3620	2
3621	4
3622	2
3623	0
3624	2
3625	0
3626	3
3627	0
3628	6
3629	1
3630	3
3631	0
3632	2
3633	2
3634	1
3635	4
3636	2
3637	2
3638	3
3639	6
3640	1
3641	2
3642	1
3643	2
3644	2
3645	5
3646	3
3647	1
3648	2
3649	0
3650	1
3651	0
3652	3
3653	0
3654	2
3655	3
3656	4
3657	2
3658	2
3659	2
3660	1
3661	3
3662	3
3663	1
3664	3
3665	0
3666	4
3667	4
3668	3
3669	2
3670	2
3671	3
3672	1
3673	3
3674	5
3675	0
3676	4
3677	2
3678	1
3679	5
3680	2
3681	1
3682	2
3683	3
3684	3
3685	4
3686	2
3687	1
3688	0
3689	2
3690	2
3691	0
3692	2
3693	6
3694	2
3695	3
3696	1
3697	2
3698	2
3699	3
3700	3
3701	3
3702	2
3703	3
3704	4
3705	4
3706	1
3707	2
3708	8
3709	1
3710	1
3711	1
3712	6
3713	1
3714	3
3715	3
3716	0
3717	3
3718	4
3719	2
3720	1
3721	4
3722	1
3723	3
3724	1
3725	1
3726	4
3727	4
3728	1
3729	1
3730	4
3731	1
3732	3
3733	4
3734	0
3735	1
3736	2
3737	4
3738	0
3739	0
3740	0
3741	1
3742	4
3743	1
3744	2
3745	4
3746	3
3747	1
3748	3
3749	3
3750	2
3751	1
3752	0
3753	2
3754	1
3755	1
3756	4
3757	2
3758	2
3759	2
3760	4
3761	2
3762	3
3763	2
3764	1
3765	2
3766	5
3767	3
3768	1
3769	1
3770	2
3771	3
3772	5
3773	1
3774	3
3775	2
3776	1
3777	4
3778	2
3779	5
3780	5
3781	4
3782	0
3783	0
3784	2
3785	3
3786	3
3787	3
3788	2
3789	6
3790	2
3791	2
3792	0
3793	1
3794	2
3795	4
3796	1
3797	1
3798	0
3799	4
3800	1
3801	3
3802	2
3803	1
3804	1
3805	4
3806	3
3807	1
3808	5
3809	2
3810	1
3811	4
3812	1
3813	2
3814	1
3815	3
3816	5
3817	5
3818	4
3819	5
3820	4
3821	1
3822	0
3823	4
3824	6
3825	3
3826	4
3827	1
3828	3
3829	5
3830	4
3831	1
3832	2
3833	2
3834	3
3835	4
3836	1
3837	4
3838	1
3839	2
3840	1
3841	3
3842	1
3843	3
3844	1
3845	2
3846	2
3847	1
3848	0
3849	3
3850	1
3851	0
3852	0
3853	0
3854	0
3855	0
3856	0
3857	0
3858	0
3859	0
3860	0
3861	0
3862	0
3863	0
3864	0
3865	0
3866	0
3867	0
3868	0
3869	0
3870	0
3871	0
3872	0
3873	0
3874	0
3875	0
3876	0
3877	0
3878	0
3879	0
3880	0
3881	0
3882	0
3883	0
3884	0
3885	0
3886	0
3887	0
3888	0
3889	0
3890	0
3891	0
3892	0
3893	0
3894	0
3895	0
3896	0
3897	0
3898	0
3899	0
3900	0
3901	0
3902	0
3903	0
3904	0
3905	0
3906	0
3907	0
3908	0
3909	0
3910	0
3911	0
3912	0
3913	0
3914	0
3915	0
3916	0
3917	0
3918	0
3919	0
3920	0
3921	0
3922	0
3923	0
3924	0
3925	0
3926	0
3927	0
3928	0
3929	0
3930	0
3931	0
3932	0
3933	0
3934	0
3935	0
3936	0
3937	0
3938	0
3939	0
3940	0
3941	0
3942	0
3943	0
3944	0
3945	0
3946	0
3947	0
3948	0
3949	0
3950	0
3951	0
3952	0
3953	0
3954	0
3955	0
3956	0
3957	0
3958	0
3959	0
3960	0
3961	0
3962	0
3963	0
3964	0
3965	0
3966	0
3967	0
3968	0
3969	0
3970	0
3971	0
3972	0
3973	0
3974	0
3975	0
3976	0
3977	0
3978	0
3979	0
3980	0
3981	0
3982	0
3983	0
3984	0
3985	0
3986	0
3987	0
3988	0
3989	0
3990	0
3991	0
3992	0
3993	0
3994	0
3995	0
3996	0
3997	0
3998	0
3999	0
4000	0
4001	0
4002	0
4003	0
4004	0
4005	0
4006	0
4007	0
4008	0
4009	0
4010	0
4011	0
4012	0
4013	0
4014	0
4015	0
4016	0
4017	0
4018	0
4019	0
4020	0
4021	0
4022	0
4023	0
4024	0
4025	0
4026	0
4027	0
4028	0
4029	0
4030	0
4031	0
4032	0
4033	0
4034	0
4035	0
4036	0
4037	0
4038	0
4039	0
4040	0
4041	0
4042	0
4043	0
4044	0
4045	0
4046	0
4047	0
4048	0
4049	0
4050	0
4051	0
4052	0
4053	0
4054	0
4055	0
4056	0
4057	0
4058	0
4059	0
4060	0
4061	0
4062	0
4063	0
4064	0
4065	0
4066	0
4067	0
4068	0
4069	0
4070	0
4071	0
4072	0
4073	0
4074	0
4075	0
4076	0
4077	0
4078	0
4079	0
4080	0
4081	0
4082	0
4083	0
4084	0
4085	0
4086	0
4087	0
4088	0
4089	0
4090	0
4091	0
4092	0
4093	0
4094	0
4095	0
4096	0
