Item name: Decay

Real time: 412.92
Live time: 239.42

Comment: 


Chan	Data
1	0
2	0
3	0
4	0
5	0
6	0
7	0
8	0
9	0
10	0
11	0
12	0
13	0
14	0
15	0
16	0
17	0
18	0
19	0
20	0
21	0
22	0
23	0
24	0
25	0
26	0
27	0
28	0
29	0
30	0
31	0
32	0
33	0
34	0
35	0
36	0
37	0
38	0
39	0
40	0
41	0
42	0
43	0
44	0
45	0
46	0
47	0
48	0
49	0
50	0
51	0
52	0
53	0
54	0
55	0
56	0
57	0
58	0
59	0
60	0
61	0
62	0
63	0
64	0
65	0
66	0
67	0
68	0
69	0
70	0
71	0
72	0
73	0
74	0
75	0
76	0
77	0
78	0
79	0
80	0
81	0
82	0
83	0
84	0
85	0
86	0
87	0
88	0
89	0
90	0
91	0
92	0
93	0
94	0
95	0
96	0
97	0
98	0
99	0
100	0
101	0
102	2
103	1
104	8
105	10
106	7
107	8
108	4
109	7
110	15
111	7
112	8
113	10
114	16
115	8
116	10
117	9
118	13
119	6
120	8
121	5
122	11
123	13
124	7
125	14
126	17
127	11
128	4
129	15
130	22
131	13
132	11
133	10
134	9
135	8
136	7
137	7
138	9
139	8
140	8
141	10
142	9
143	13
144	8
145	10
146	12
147	12
148	8
149	11
150	11
151	6
152	10
153	10
154	4
155	12
156	9
157	12
158	7
159	15
160	6
161	16
162	11
163	10
164	9
165	7
166	8
167	7
168	2
169	10
170	9
171	9
172	10
173	11
174	13
175	11
176	12
177	17
178	3
179	11
180	11
181	16
182	9
183	8
184	10
185	9
186	11
187	7
188	8
189	11
190	7
191	10
192	10
193	10
194	11
195	10
196	7
197	6
198	19
199	8
200	7
201	10
202	9
203	8
204	10
205	13
206	8
207	10
208	7
209	7
210	13
211	9
212	11
213	13
214	12
215	6
216	10
217	5
218	13
219	9
220	8
221	14
222	10
223	11
224	8
225	13
226	6
227	10
228	11
229	7
230	16
231	7
232	4
233	12
234	3
235	7
236	11
237	7
238	11
239	7
240	5
241	10
242	7
243	11
244	16
245	10
246	16
247	13
248	15
249	7
250	7
251	8
252	7
253	12
254	14
255	5
256	14
257	9
258	15
259	13
260	6
261	11
262	8
263	16
264	13
265	13
266	8
267	10
268	8
269	11
270	8
271	6
272	8
273	5
274	9
275	15
276	10
277	8
278	7
279	10
280	11
281	11
282	10
283	6
284	9
285	8
286	12
287	15
288	8
289	13
290	7
291	5
292	12
293	5
294	7
295	8
296	11
297	15
298	9
299	7
300	10
301	8
302	8
303	11
304	11
305	15
306	6
307	11
308	5
309	9
310	9
311	11
312	7
313	13
314	15
315	5
316	8
317	6
318	15
319	14
320	6
321	5
322	18
323	13
324	6
325	7
326	7
327	8
328	8
329	16
330	4
331	6
332	8
333	12
334	8
335	6
336	3
337	10
338	5
339	7
340	8
341	8
342	17
343	7
344	10
345	6
346	13
347	14
348	11
349	11
350	13
351	8
352	4
353	13
354	14
355	7
356	14
357	10
358	9
359	5
360	14
361	10
362	6
363	12
364	12
365	9
366	10
367	9
368	11
369	11
370	11
371	7
372	12
373	9
374	11
375	3
376	7
377	13
378	8
379	14
380	6
381	14
382	12
383	13
384	5
385	5
386	9
387	6
388	6
389	4
390	7
391	9
392	14
393	9
394	9
395	9
396	7
397	5
398	5
399	11
400	10
401	11
402	7
403	13
404	7
405	5
406	13
407	7
408	11
409	16
410	6
411	6
412	10
413	10
414	10
415	7
416	11
417	7
418	9
419	8
420	5
421	10
422	8
423	12
424	8
425	12
426	10
427	7
428	5
429	5
430	10
431	15
432	9
433	14
434	7
435	11
436	7
437	9
438	10
439	8
440	8
441	6
442	12
443	14
444	6
445	8
446	11
447	9
448	4
449	16
450	11
451	10
452	12
453	9
454	12
455	16
456	9
457	13
458	8
459	8
460	12
461	5
462	16
463	8
464	14
465	8
466	9
467	6
468	11
469	11
470	11
471	13
472	8
473	13
474	8
475	16
476	7
477	10
478	7
479	16
480	10
481	16
482	11
483	17
484	18
485	21
486	28
487	29
488	30
489	41
490	36
491	31
492	51
493	47
494	56
495	70
496	87
497	117
498	123
499	162
500	222
501	246
502	330
503	432
504	526
505	688
506	910
507	1127
508	1423
509	1887
510	2527
511	3138
512	4007
513	4982
514	6219
515	7609
516	9166
517	11293
518	13340
519	15531
520	18109
521	20638
522	22954
523	25884
524	28815
525	30869
526	33608
527	36119
528	38475
529	40444
530	42008
531	42912
532	44771
533	45758
534	46529
535	47687
536	48342
537	48762
538	48873
539	49426
540	50002
541	49882
542	49497
543	49641
544	49628
545	49882
546	49701
547	49544
548	49456
549	49285
550	49066
551	49249
552	49351
553	48779
554	48855
555	48568
556	48260
557	48666
558	48081
559	48198
560	47539
561	47377
562	47438
563	47082
564	47102
565	46731
566	46244
567	45849
568	45962
569	45853
570	45683
571	45310
572	44866
573	44351
574	44691
575	44199
576	43994
577	43835
578	43385
579	43429
580	43059
581	42604
582	42579
583	42337
584	42184
585	41952
586	41651
587	41545
588	41158
589	41143
590	40992
591	40786
592	40434
593	40564
594	40021
595	39886
596	39979
597	39516
598	39410
599	39356
600	39350
601	38867
602	38514
603	38363
604	38323
605	38156
606	38577
607	37717
608	37753
609	37813
610	37254
611	37380
612	37129
613	37033
614	37163
615	36809
616	36551
617	36444
618	36288
619	36347
620	36224
621	36401
622	35393
623	35217
624	35669
625	35503
626	34908
627	35129
628	34699
629	34934
630	34723
631	34036
632	34400
633	33640
634	33967
635	34070
636	33563
637	33492
638	32969
639	33213
640	33021
641	32701
642	33153
643	32761
644	32735
645	32072
646	32271
647	32050
648	32327
649	32096
650	31554
651	31771
652	31643
653	31481
654	31108
655	31113
656	30879
657	30739
658	30829
659	30747
660	30717
661	30347
662	30032
663	30112
664	29873
665	29849
666	29813
667	29462
668	29620
669	29376
670	28990
671	29417
672	28854
673	28832
674	28699
675	28550
676	28545
677	28414
678	28346
679	28225
680	28460
681	27940
682	27990
683	27789
684	27604
685	27401
686	27591
687	27328
688	27266
689	27377
690	26996
691	27069
692	26855
693	26663
694	26603
695	26689
696	26554
697	26138
698	26607
699	25931
700	26473
701	25994
702	26105
703	26021
704	25761
705	25738
706	25632
707	25424
708	25318
709	25458
710	25257
711	24965
712	24888
713	24735
714	24655
715	24709
716	24619
717	24594
718	24395
719	24472
720	24630
721	24018
722	24134
723	24016
724	24147
725	23884
726	23987
727	24001
728	23911
729	23772
730	23624
731	23352
732	23262
733	22960
734	23153
735	23145
736	22882
737	22858
738	22647
739	22763
740	22937
741	22643
742	22552
743	22311
744	22269
745	22118
746	22259
747	22010
748	22186
749	21837
750	22193
751	21931
752	21721
753	21854
754	21617
755	21529
756	21064
757	21088
758	21016
759	21045
760	21210
761	21105
762	21095
763	20909
764	21008
765	20770
766	20316
767	20505
768	20451
769	19990
770	20151
771	20138
772	20067
773	20342
774	20189
775	20372
776	19770
777	19705
778	19955
779	19688
780	19631
781	19646
782	19478
783	19262
784	19570
785	19272
786	19396
787	19270
788	18964
789	19006
790	18971
791	18956
792	18815
793	18969
794	18723
795	18754
796	18391
797	18381
798	18563
799	18380
800	18404
801	18416
802	18249
803	18477
804	18058
805	18271
806	17819
807	17983
808	17720
809	17799
810	17252
811	17738
812	17650
813	17417
814	17690
815	17366
816	17308
817	17516
818	17101
819	17200
820	17188
821	17236
822	17306
823	17066
824	17150
825	16829
826	16904
827	17041
828	16749
829	16826
830	16483
831	16577
832	16559
833	16590
834	16423
835	16364
836	16309
837	16074
838	15835
839	16008
840	16136
841	15943
842	15838
843	15684
844	15716
845	15742
846	15644
847	16017
848	15512
849	15389
850	15587
851	15313
852	15061
853	15165
854	15165
855	15281
856	15252
857	15178
858	15068
859	14834
860	14808
861	14676
862	14602
863	14868
864	14545
865	14824
866	14562
867	14845
868	14366
869	14338
870	14519
871	14274
872	14256
873	14123
874	14138
875	14257
876	14136
877	14188
878	14059
879	13748
880	13741
881	13734
882	13860
883	13614
884	13659
885	13652
886	13632
887	13585
888	13552
889	13253
890	13442
891	13563
892	13407
893	13406
894	13196
895	13106
896	13183
897	13254
898	13028
899	13059
900	12823
901	13026
902	12766
903	12626
904	12912
905	12824
906	12600
907	12507
908	12529
909	12468
910	12593
911	12456
912	12496
913	12429
914	12311
915	12273
916	12307
917	12375
918	12150
919	12055
920	12132
921	12019
922	12010
923	11872
924	11922
925	11917
926	11849
927	11917
928	11797
929	11727
930	11632
931	11741
932	11819
933	11681
934	11567
935	11575
936	11419
937	11453
938	11270
939	11486
940	11349
941	11210
942	11224
943	11503
944	11107
945	11208
946	11243
947	11150
948	11220
949	10940
950	10775
951	10885
952	10918
953	10806
954	10872
955	10869
956	10918
957	10599
958	10752
959	10818
960	10542
961	10613
962	10503
963	10558
964	10325
965	10493
966	10326
967	10317
968	10345
969	10301
970	10141
971	10019
972	10137
973	9977
974	10112
975	9965
976	9889
977	9780
978	9919
979	9998
980	9789
981	9760
982	9774
983	9940
984	9756
985	9726
986	9493
987	9699
988	9633
989	9482
990	9478
991	9384
992	9383
993	9144
994	9262
995	9283
996	9185
997	9139
998	9200
999	9268
1000	9041
1001	9092
1002	9121
1003	9012
1004	8942
1005	8952
1006	8826
1007	8822
1008	8939
1009	8803
1010	8703
1011	8860
1012	8907
1013	8669
1014	8815
1015	8554
1016	8820
1017	8554
1018	8528
1019	8509
1020	8559
1021	8299
1022	8410
1023	8393
1024	8369
1025	8427
1026	8268
1027	8447
1028	8340
1029	8146
1030	8259
1031	8187
1032	8217
1033	8240
1034	8215
1035	8042
1036	8159
1037	8122
1038	8067
1039	8038
1040	7967
1041	8041
1042	7943
1043	7819
1044	7895
1045	7975
1046	7745
1047	7901
1048	7835
1049	7833
1050	7824
1051	7780
1052	7509
1053	7731
1054	7722
1055	7609
1056	7679
1057	7531
1058	7669
1059	7619
1060	7508
1061	7427
1062	7314
1063	7310
1064	7374
1065	7473
1066	7209
1067	7243
1068	7280
1069	7305
1070	7003
1071	7239
1072	7144
1073	7121
1074	6964
1075	7139
1076	7144
1077	7167
1078	7167
1079	7054
1080	6943
1081	6988
1082	6970
1083	6962
1084	6813
1085	6914
1086	6726
1087	6758
1088	6667
1089	6721
1090	6594
1091	6725
1092	6672
1093	6501
1094	6688
1095	6552
1096	6683
1097	6540
1098	6570
1099	6568
1100	6433
1101	6507
1102	6367
1103	6429
1104	6453
1105	6334
1106	6426
1107	6369
1108	6120
1109	6211
1110	6206
1111	6211
1112	6147
1113	6105
1114	6078
1115	6034
1116	6139
1117	6090
1118	6006
1119	6105
1120	6029
1121	5966
1122	5854
1123	5969
1124	5926
1125	5995
1126	5868
1127	5888
1128	5902
1129	5887
1130	5840
1131	5749
1132	5830
1133	5740
1134	5787
1135	5675
1136	5761
1137	5773
1138	5726
1139	5669
1140	5671
1141	5636
1142	5637
1143	5638
1144	5538
1145	5539
1146	5562
1147	5594
1148	5516
1149	5339
1150	5491
1151	5524
1152	5428
1153	5366
1154	5421
1155	5433
1156	5406
1157	5452
1158	5424
1159	5456
1160	5427
1161	5326
1162	5324
1163	5368
1164	5178
1165	5229
1166	5157
1167	5146
1168	5262
1169	5252
1170	5155
1171	5132
1172	5040
1173	5213
1174	4953
1175	4924
1176	4996
1177	5051
1178	5039
1179	5003
1180	4942
1181	4946
1182	4911
1183	4973
1184	4806
1185	4874
1186	4751
1187	4882
1188	4847
1189	4894
1190	4778
1191	4784
1192	4711
1193	4848
1194	4749
1195	4648
1196	4766
1197	4737
1198	4684
1199	4784
1200	4538
1201	4665
1202	4643
1203	4637
1204	4616
1205	4640
1206	4686
1207	4597
1208	4654
1209	4528
1210	4568
1211	4473
1212	4485
1213	4558
1214	4411
1215	4449
1216	4334
1217	4424
1218	4272
1219	4306
1220	4233
1221	4380
1222	4341
1223	4226
1224	4243
1225	4203
1226	4332
1227	4260
1228	4310
1229	4215
1230	4198
1231	3979
1232	4140
1233	4170
1234	4019
1235	4073
1236	4164
1237	3963
1238	4053
1239	4065
1240	4088
1241	4156
1242	4015
1243	4048
1244	4043
1245	4082
1246	4006
1247	3836
1248	3920
1249	3929
1250	4014
1251	3917
1252	3891
1253	3860
1254	3922
1255	4001
1256	3940
1257	3895
1258	3809
1259	3830
1260	3766
1261	3770
1262	3795
1263	3647
1264	3776
1265	3767
1266	3662
1267	3719
1268	3742
1269	3712
1270	3742
1271	3660
1272	3590
1273	3638
1274	3617
1275	3539
1276	3592
1277	3582
1278	3497
1279	3737
1280	3587
1281	3561
1282	3563
1283	3566
1284	3483
1285	3362
1286	3435
1287	3442
1288	3470
1289	3420
1290	3358
1291	3410
1292	3416
1293	3477
1294	3360
1295	3379
1296	3385
1297	3412
1298	3251
1299	3208
1300	3357
1301	3322
1302	3367
1303	3264
1304	3256
1305	3261
1306	3172
1307	3184
1308	3210
1309	3248
1310	3288
1311	3214
1312	3155
1313	3086
1314	3109
1315	3173
1316	3147
1317	3175
1318	3204
1319	3115
1320	3093
1321	3125
1322	3094
1323	3092
1324	2919
1325	3098
1326	3030
1327	3000
1328	3057
1329	2945
1330	3034
1331	3069
1332	3044
1333	2941
1334	2921
1335	2956
1336	2909
1337	2848
1338	2909
1339	3054
1340	2932
1341	2839
1342	2923
1343	2808
1344	2875
1345	2919
1346	2851
1347	2805
1348	2785
1349	2831
1350	2841
1351	2825
1352	2859
1353	2761
1354	2811
1355	2635
1356	2709
1357	2728
1358	2817
1359	2678
1360	2701
1361	2635
1362	2708
1363	2775
1364	2686
1365	2626
1366	2679
1367	2730
1368	2621
1369	2634
1370	2674
1371	2634
1372	2626
1373	2568
1374	2695
1375	2540
1376	2524
1377	2626
1378	2556
1379	2597
1380	2566
1381	2565
1382	2473
1383	2514
1384	2481
1385	2521
1386	2491
1387	2392
1388	2409
1389	2495
1390	2377
1391	2406
1392	2490
1393	2434
1394	2347
1395	2376
1396	2452
1397	2428
1398	2378
1399	2319
1400	2385
1401	2331
1402	2370
1403	2329
1404	2306
1405	2345
1406	2313
1407	2371
1408	2341
1409	2271
1410	2247
1411	2298
1412	2215
1413	2211
1414	2302
1415	2230
1416	2195
1417	2190
1418	2215
1419	2232
1420	2163
1421	2249
1422	2182
1423	2165
1424	2164
1425	2084
1426	2235
1427	2110
1428	2145
1429	2071
1430	2148
1431	2128
1432	2139
1433	2062
1434	2080
1435	2084
1436	2090
1437	2145
1438	2060
1439	2083
1440	1993
1441	2037
1442	2023
1443	2036
1444	2060
1445	2007
1446	2018
1447	1966
1448	2008
1449	1944
1450	1981
1451	1956
1452	1975
1453	2076
1454	2005
1455	1988
1456	1925
1457	1981
1458	1941
1459	1964
1460	1984
1461	1894
1462	1921
1463	1866
1464	1875
1465	1807
1466	1907
1467	1917
1468	1791
1469	1821
1470	1827
1471	1911
1472	1919
1473	1869
1474	1954
1475	1832
1476	1865
1477	1820
1478	1879
1479	1838
1480	1836
1481	1869
1482	1819
1483	1758
1484	1830
1485	1765
1486	1794
1487	1701
1488	1806
1489	1756
1490	1750
1491	1746
1492	1741
1493	1753
1494	1730
1495	1717
1496	1686
1497	1756
1498	1750
1499	1658
1500	1665
1501	1703
1502	1677
1503	1715
1504	1638
1505	1669
1506	1695
1507	1624
1508	1688
1509	1560
1510	1611
1511	1646
1512	1673
1513	1682
1514	1550
1515	1576
1516	1615
1517	1598
1518	1592
1519	1563
1520	1589
1521	1566
1522	1598
1523	1609
1524	1466
1525	1599
1526	1532
1527	1545
1528	1640
1529	1527
1530	1443
1531	1510
1532	1524
1533	1557
1534	1542
1535	1479
1536	1458
1537	1516
1538	1459
1539	1416
1540	1425
1541	1522
1542	1459
1543	1510
1544	1523
1545	1410
1546	1485
1547	1458
1548	1398
1549	1385
1550	1456
1551	1427
1552	1446
1553	1456
1554	1474
1555	1460
1556	1462
1557	1399
1558	1319
1559	1318
1560	1386
1561	1355
1562	1370
1563	1331
1564	1384
1565	1271
1566	1372
1567	1380
1568	1325
1569	1321
1570	1341
1571	1304
1572	1312
1573	1283
1574	1374
1575	1295
1576	1267
1577	1283
1578	1270
1579	1315
1580	1308
1581	1314
1582	1312
1583	1277
1584	1300
1585	1318
1586	1331
1587	1267
1588	1250
1589	1252
1590	1262
1591	1337
1592	1205
1593	1192
1594	1258
1595	1292
1596	1227
1597	1223
1598	1202
1599	1211
1600	1236
1601	1178
1602	1234
1603	1204
1604	1186
1605	1258
1606	1233
1607	1243
1608	1149
1609	1188
1610	1202
1611	1176
1612	1198
1613	1090
1614	1154
1615	1136
1616	1080
1617	1141
1618	1140
1619	1108
1620	1094
1621	1155
1622	1096
1623	1201
1624	1072
1625	1126
1626	1144
1627	1080
1628	1167
1629	1122
1630	1124
1631	1083
1632	1061
1633	1120
1634	1033
1635	1027
1636	1084
1637	1098
1638	1066
1639	1106
1640	1066
1641	1071
1642	1082
1643	1051
1644	991
1645	1061
1646	1025
1647	1070
1648	1049
1649	1003
1650	1025
1651	1010
1652	1012
1653	1013
1654	1021
1655	1063
1656	1022
1657	1056
1658	1004
1659	1015
1660	1007
1661	953
1662	1008
1663	964
1664	983
1665	985
1666	939
1667	1004
1668	943
1669	995
1670	970
1671	947
1672	981
1673	929
1674	977
1675	922
1676	963
1677	948
1678	960
1679	920
1680	874
1681	960
1682	973
1683	910
1684	922
1685	897
1686	911
1687	935
1688	888
1689	844
1690	871
1691	874
1692	944
1693	915
1694	884
1695	867
1696	946
1697	880
1698	905
1699	939
1700	839
1701	868
1702	854
1703	802
1704	926
1705	943
1706	829
1707	861
1708	857
1709	808
1710	799
1711	800
1712	855
1713	854
1714	839
1715	849
1716	879
1717	865
1718	789
1719	830
1720	806
1721	820
1722	779
1723	770
1724	764
1725	801
1726	832
1727	778
1728	763
1729	769
1730	767
1731	803
1732	744
1733	802
1734	779
1735	733
1736	773
1737	764
1738	804
1739	815
1740	818
1741	755
1742	743
1743	738
1744	749
1745	717
1746	741
1747	784
1748	695
1749	753
1750	720
1751	754
1752	729
1753	747
1754	791
1755	705
1756	731
1757	759
1758	690
1759	763
1760	699
1761	703
1762	759
1763	722
1764	689
1765	728
1766	687
1767	677
1768	691
1769	734
1770	686
1771	654
1772	645
1773	697
1774	672
1775	684
1776	710
1777	629
1778	656
1779	666
1780	683
1781	671
1782	715
1783	653
1784	686
1785	663
1786	674
1787	634
1788	701
1789	669
1790	671
1791	677
1792	691
1793	649
1794	649
1795	657
1796	636
1797	673
1798	662
1799	613
1800	638
1801	634
1802	629
1803	618
1804	638
1805	632
1806	589
1807	604
1808	639
1809	602
1810	605
1811	613
1812	611
1813	604
1814	598
1815	629
1816	559
1817	615
1818	597
1819	552
1820	598
1821	605
1822	532
1823	590
1824	568
1825	561
1826	558
1827	603
1828	591
1829	550
1830	533
1831	537
1832	571
1833	587
1834	560
1835	527
1836	542
1837	542
1838	543
1839	547
1840	533
1841	550
1842	529
1843	516
1844	541
1845	545
1846	600
1847	495
1848	558
1849	547
1850	542
1851	530
1852	505
1853	560
1854	516
1855	514
1856	538
1857	517
1858	498
1859	558
1860	480
1861	525
1862	512
1863	521
1864	481
1865	469
1866	473
1867	492
1868	506
1869	512
1870	463
1871	528
1872	455
1873	529
1874	469
1875	513
1876	522
1877	480
1878	461
1879	507
1880	460
1881	501
1882	500
1883	486
1884	526
1885	425
1886	468
1887	473
1888	474
1889	474
1890	428
1891	416
1892	444
1893	440
1894	435
1895	460
1896	454
1897	449
1898	424
1899	464
1900	478
1901	452
1902	443
1903	430
1904	457
1905	444
1906	456
1907	453
1908	423
1909	408
1910	440
1911	476
1912	424
1913	453
1914	432
1915	448
1916	435
1917	443
1918	425
1919	404
1920	425
1921	406
1922	423
1923	444
1924	436
1925	457
1926	427
1927	413
1928	420
1929	444
1930	420
1931	382
1932	390
1933	416
1934	399
1935	426
1936	402
1937	416
1938	416
1939	386
1940	399
1941	372
1942	383
1943	367
1944	361
1945	404
1946	383
1947	433
1948	361
1949	389
1950	406
1951	411
1952	388
1953	381
1954	383
1955	373
1956	409
1957	377
1958	343
1959	419
1960	388
1961	393
1962	386
1963	370
1964	378
1965	382
1966	374
1967	352
1968	358
1969	374
1970	364
1971	367
1972	370
1973	337
1974	362
1975	371
1976	360
1977	369
1978	376
1979	329
1980	408
1981	336
1982	344
1983	327
1984	348
1985	316
1986	349
1987	335
1988	336
1989	319
1990	334
1991	293
1992	362
1993	347
1994	315
1995	343
1996	315
1997	380
1998	344
1999	332
2000	309
2001	334
2002	308
2003	334
2004	289
2005	330
2006	294
2007	344
2008	319
2009	291
2010	317
2011	270
2012	295
2013	326
2014	314
2015	330
2016	311
2017	300
2018	302
2019	292
2020	307
2021	289
2022	326
2023	307
2024	296
2025	315
2026	315
2027	321
2028	274
2029	299
2030	311
2031	294
2032	291
2033	332
2034	313
2035	305
2036	293
2037	294
2038	303
2039	307
2040	290
2041	327
2042	304
2043	284
2044	276
2045	304
2046	287
2047	311
2048	304
2049	296
2050	311
2051	276
2052	302
2053	252
2054	296
2055	310
2056	275
2057	281
2058	283
2059	301
2060	274
2061	292
2062	251
2063	260
2064	263
2065	259
2066	289
2067	280
2068	276
2069	243
2070	249
2071	249
2072	262
2073	288
2074	240
2075	279
2076	235
2077	266
2078	261
2079	254
2080	259
2081	240
2082	265
2083	256
2084	259
2085	251
2086	244
2087	253
2088	269
2089	229
2090	268
2091	242
2092	272
2093	276
2094	253
2095	254
2096	281
2097	226
2098	222
2099	238
2100	244
2101	253
2102	232
2103	225
2104	235
2105	271
2106	282
2107	258
2108	244
2109	252
2110	252
2111	240
2112	248
2113	241
2114	262
2115	249
2116	266
2117	258
2118	255
2119	218
2120	265
2121	232
2122	238
2123	239
2124	219
2125	247
2126	270
2127	260
2128	245
2129	238
2130	222
2131	216
2132	247
2133	229
2134	265
2135	249
2136	264
2137	222
2138	246
2139	231
2140	236
2141	233
2142	257
2143	249
2144	236
2145	265
2146	230
2147	269
2148	250
2149	247
2150	238
2151	215
2152	248
2153	241
2154	256
2155	209
2156	237
2157	249
2158	235
2159	238
2160	241
2161	227
2162	232
2163	240
2164	213
2165	232
2166	238
2167	244
2168	260
2169	240
2170	250
2171	236
2172	200
2173	219
2174	233
2175	248
2176	225
2177	246
2178	222
2179	226
2180	233
2181	232
2182	222
2183	213
2184	216
2185	210
2186	262
2187	210
2188	237
2189	226
2190	251
2191	210
2192	208
2193	233
2194	228
2195	214
2196	209
2197	213
2198	219
2199	230
2200	218
2201	211
2202	219
2203	211
2204	206
2205	231
2206	213
2207	186
2208	212
2209	225
2210	219
2211	205
2212	226
2213	202
2214	234
2215	231
2216	202
2217	201
2218	220
2219	195
2220	189
2221	200
2222	210
2223	240
2224	195
2225	237
2226	223
2227	194
2228	217
2229	222
2230	213
2231	218
2232	211
2233	212
2234	218
2235	206
2236	213
2237	206
2238	191
2239	186
2240	220
2241	194
2242	198
2243	190
2244	198
2245	182
2246	222
2247	209
2248	188
2249	179
2250	171
2251	196
2252	199
2253	197
2254	171
2255	195
2256	178
2257	225
2258	181
2259	213
2260	191
2261	198
2262	202
2263	197
2264	206
2265	195
2266	204
2267	190
2268	178
2269	189
2270	178
2271	209
2272	175
2273	201
2274	194
2275	179
2276	209
2277	174
2278	189
2279	170
2280	177
2281	194
2282	194
2283	195
2284	181
2285	181
2286	182
2287	195
2288	177
2289	194
2290	168
2291	176
2292	175
2293	165
2294	196
2295	168
2296	168
2297	178
2298	185
2299	191
2300	186
2301	183
2302	184
2303	188
2304	178
2305	187
2306	188
2307	177
2308	169
2309	169
2310	174
2311	207
2312	161
2313	178
2314	177
2315	182
2316	184
2317	160
2318	148
2319	160
2320	149
2321	162
2322	185
2323	148
2324	179
2325	187
2326	149
2327	161
2328	167
2329	190
2330	175
2331	180
2332	166
2333	163
2334	170
2335	161
2336	153
2337	154
2338	165
2339	181
2340	155
2341	160
2342	151
2343	160
2344	165
2345	156
2346	145
2347	167
2348	163
2349	173
2350	156
2351	150
2352	153
2353	175
2354	144
2355	142
2356	156
2357	140
2358	144
2359	153
2360	157
2361	150
2362	148
2363	150
2364	141
2365	162
2366	149
2367	146
2368	159
2369	150
2370	148
2371	155
2372	134
2373	145
2374	156
2375	150
2376	153
2377	150
2378	154
2379	149
2380	153
2381	118
2382	152
2383	157
2384	139
2385	140
2386	159
2387	158
2388	158
2389	149
2390	167
2391	150
2392	152
2393	160
2394	161
2395	152
2396	140
2397	118
2398	144
2399	152
2400	121
2401	137
2402	141
2403	144
2404	136
2405	148
2406	162
2407	140
2408	144
2409	162
2410	135
2411	138
2412	137
2413	133
2414	138
2415	130
2416	118
2417	144
2418	135
2419	139
2420	138
2421	127
2422	133
2423	148
2424	124
2425	139
2426	143
2427	137
2428	132
2429	127
2430	128
2431	131
2432	153
2433	143
2434	131
2435	143
2436	141
2437	133
2438	98
2439	140
2440	140
2441	128
2442	135
2443	121
2444	146
2445	127
2446	129
2447	124
2448	133
2449	142
2450	152
2451	130
2452	138
2453	134
2454	125
2455	156
2456	137
2457	118
2458	105
2459	108
2460	153
2461	118
2462	134
2463	128
2464	127
2465	122
2466	99
2467	122
2468	111
2469	129
2470	135
2471	123
2472	115
2473	139
2474	136
2475	113
2476	113
2477	113
2478	112
2479	124
2480	122
2481	126
2482	131
2483	122
2484	115
2485	113
2486	111
2487	117
2488	109
2489	128
2490	116
2491	123
2492	128
2493	105
2494	103
2495	116
2496	94
2497	116
2498	138
2499	97
2500	126
2501	128
2502	125
2503	120
2504	105
2505	114
2506	112
2507	117
2508	138
2509	103
2510	115
2511	103
2512	102
2513	116
2514	114
2515	96
2516	114
2517	102
2518	129
2519	106
2520	105
2521	105
2522	127
2523	96
2524	116
2525	127
2526	116
2527	125
2528	99
2529	99
2530	111
2531	109
2532	103
2533	92
2534	108
2535	94
2536	101
2537	114
2538	95
2539	117
2540	123
2541	99
2542	87
2543	135
2544	96
2545	111
2546	94
2547	101
2548	102
2549	113
2550	103
2551	101
2552	95
2553	124
2554	114
2555	106
2556	93
2557	96
2558	98
2559	95
2560	97
2561	88
2562	112
2563	93
2564	121
2565	107
2566	99
2567	111
2568	109
2569	85
2570	94
2571	114
2572	102
2573	106
2574	97
2575	114
2576	97
2577	98
2578	94
2579	89
2580	89
2581	94
2582	102
2583	100
2584	95
2585	99
2586	98
2587	95
2588	85
2589	101
2590	76
2591	80
2592	103
2593	100
2594	112
2595	106
2596	112
2597	95
2598	78
2599	102
2600	115
2601	110
2602	80
2603	97
2604	104
2605	111
2606	87
2607	94
2608	98
2609	99
2610	93
2611	82
2612	96
2613	80
2614	108
2615	89
2616	87
2617	94
2618	99
2619	82
2620	102
2621	89
2622	90
2623	100
2624	79
2625	95
2626	84
2627	93
2628	107
2629	99
2630	91
2631	91
2632	98
2633	107
2634	94
2635	75
2636	80
2637	87
2638	83
2639	96
2640	75
2641	91
2642	95
2643	80
2644	98
2645	87
2646	79
2647	92
2648	78
2649	100
2650	85
2651	83
2652	83
2653	87
2654	89
2655	83
2656	83
2657	76
2658	86
2659	71
2660	87
2661	92
2662	74
2663	94
2664	79
2665	85
2666	79
2667	86
2668	69
2669	87
2670	64
2671	91
2672	87
2673	98
2674	90
2675	83
2676	95
2677	80
2678	89
2679	84
2680	102
2681	73
2682	84
2683	86
2684	79
2685	84
2686	85
2687	96
2688	72
2689	89
2690	66
2691	76
2692	90
2693	68
2694	70
2695	90
2696	80
2697	84
2698	81
2699	76
2700	88
2701	103
2702	82
2703	77
2704	78
2705	54
2706	83
2707	83
2708	74
2709	80
2710	67
2711	86
2712	94
2713	83
2714	89
2715	87
2716	84
2717	67
2718	60
2719	71
2720	74
2721	73
2722	79
2723	62
2724	83
2725	63
2726	70
2727	86
2728	75
2729	79
2730	84
2731	82
2732	81
2733	75
2734	81
2735	74
2736	72
2737	76
2738	52
2739	91
2740	60
2741	84
2742	78
2743	75
2744	72
2745	87
2746	58
2747	78
2748	76
2749	67
2750	81
2751	71
2752	68
2753	77
2754	81
2755	75
2756	76
2757	69
2758	70
2759	64
2760	62
2761	64
2762	72
2763	68
2764	65
2765	65
2766	75
2767	78
2768	70
2769	69
2770	62
2771	57
2772	72
2773	71
2774	62
2775	67
2776	73
2777	61
2778	67
2779	68
2780	76
2781	57
2782	61
2783	60
2784	69
2785	54
2786	69
2787	66
2788	63
2789	64
2790	74
2791	63
2792	53
2793	65
2794	59
2795	67
2796	67
2797	58
2798	69
2799	52
2800	56
2801	70
2802	63
2803	71
2804	56
2805	59
2806	62
2807	71
2808	49
2809	57
2810	63
2811	62
2812	60
2813	53
2814	69
2815	58
2816	77
2817	72
2818	56
2819	59
2820	69
2821	50
2822	55
2823	62
2824	68
2825	60
2826	58
2827	62
2828	56
2829	59
2830	65
2831	51
2832	61
2833	57
2834	71
2835	53
2836	52
2837	64
2838	52
2839	63
2840	45
2841	59
2842	57
2843	69
2844	57
2845	68
2846	70
2847	50
2848	57
2849	55
2850	71
2851	56
2852	60
2853	60
2854	58
2855	45
2856	53
2857	61
2858	56
2859	59
2860	54
2861	50
2862	40
2863	83
2864	40
2865	56
2866	59
2867	61
2868	55
2869	57
2870	71
2871	47
2872	50
2873	57
2874	37
2875	61
2876	65
2877	54
2878	43
2879	50
2880	45
2881	51
2882	62
2883	54
2884	54
2885	54
2886	65
2887	44
2888	65
2889	50
2890	41
2891	50
2892	50
2893	52
2894	60
2895	52
2896	40
2897	46
2898	50
2899	60
2900	53
2901	50
2902	56
2903	40
2904	49
2905	50
2906	65
2907	51
2908	47
2909	55
2910	36
2911	52
2912	53
2913	41
2914	52
2915	40
2916	49
2917	46
2918	60
2919	52
2920	38
2921	47
2922	49
2923	47
2924	38
2925	46
2926	45
2927	56
2928	40
2929	48
2930	43
2931	43
2932	56
2933	48
2934	53
2935	51
2936	43
2937	54
2938	35
2939	49
2940	40
2941	52
2942	37
2943	55
2944	61
2945	42
2946	50
2947	44
2948	39
2949	49
2950	51
2951	38
2952	37
2953	62
2954	49
2955	35
2956	41
2957	41
2958	54
2959	45
2960	40
2961	42
2962	39
2963	51
2964	46
2965	33
2966	37
2967	40
2968	58
2969	42
2970	50
2971	50
2972	44
2973	42
2974	44
2975	41
2976	51
2977	49
2978	46
2979	49
2980	35
2981	44
2982	34
2983	56
2984	42
2985	43
2986	60
2987	57
2988	44
2989	40
2990	54
2991	43
2992	41
2993	30
2994	45
2995	49
2996	38
2997	38
2998	33
2999	32
3000	52
3001	37
3002	43
3003	50
3004	33
3005	42
3006	45
3007	37
3008	45
3009	34
3010	46
3011	36
3012	39
3013	38
3014	34
3015	44
3016	32
3017	51
3018	34
3019	33
3020	42
3021	39
3022	38
3023	38
3024	40
3025	35
3026	45
3027	42
3028	35
3029	39
3030	48
3031	45
3032	40
3033	39
3034	52
3035	43
3036	35
3037	49
3038	48
3039	35
3040	36
3041	43
3042	44
3043	43
3044	39
3045	34
3046	33
3047	30
3048	39
3049	35
3050	35
3051	40
3052	41
3053	29
3054	30
3055	28
3056	37
3057	41
3058	42
3059	32
3060	34
3061	35
3062	33
3063	39
3064	40
3065	37
3066	41
3067	30
3068	38
3069	33
3070	41
3071	43
3072	33
3073	41
3074	35
3075	33
3076	33
3077	36
3078	35
3079	37
3080	38
3081	40
3082	36
3083	36
3084	35
3085	42
3086	39
3087	45
3088	34
3089	35
3090	26
3091	38
3092	21
3093	43
3094	28
3095	38
3096	38
3097	30
3098	36
3099	31
3100	24
3101	34
3102	39
3103	31
3104	25
3105	32
3106	28
3107	38
3108	37
3109	29
3110	31
3111	36
3112	35
3113	39
3114	42
3115	35
3116	35
3117	32
3118	37
3119	35
3120	29
3121	39
3122	35
3123	33
3124	33
3125	31
3126	31
3127	43
3128	38
3129	33
3130	32
3131	30
3132	45
3133	37
3134	40
3135	36
3136	29
3137	31
3138	25
3139	30
3140	27
3141	35
3142	30
3143	24
3144	29
3145	28
3146	39
3147	36
3148	24
3149	32
3150	31
3151	34
3152	38
3153	31
3154	36
3155	32
3156	28
3157	33
3158	23
3159	22
3160	33
3161	27
3162	17
3163	25
3164	30
3165	37
3166	40
3167	36
3168	37
3169	31
3170	34
3171	27
3172	31
3173	41
3174	30
3175	23
3176	29
3177	29
3178	36
3179	23
3180	27
3181	32
3182	21
3183	25
3184	27
3185	21
3186	23
3187	34
3188	14
3189	24
3190	34
3191	27
3192	33
3193	48
3194	32
3195	27
3196	30
3197	28
3198	32
3199	26
3200	25
3201	30
3202	33
3203	38
3204	30
3205	26
3206	27
3207	32
3208	20
3209	25
3210	23
3211	26
3212	23
3213	24
3214	23
3215	28
3216	16
3217	19
3218	42
3219	31
3220	27
3221	20
3222	28
3223	30
3224	42
3225	28
3226	44
3227	26
3228	31
3229	27
3230	25
3231	32
3232	26
3233	30
3234	27
3235	22
3236	19
3237	27
3238	20
3239	29
3240	29
3241	28
3242	21
3243	42
3244	25
3245	33
3246	28
3247	17
3248	30
3249	21
3250	28
3251	27
3252	23
3253	21
3254	28
3255	20
3256	25
3257	21
3258	23
3259	24
3260	26
3261	24
3262	24
3263	30
3264	27
3265	23
3266	30
3267	36
3268	36
3269	26
3270	19
3271	22
3272	34
3273	26
3274	27
3275	19
3276	30
3277	28
3278	26
3279	27
3280	12
3281	31
3282	34
3283	24
3284	26
3285	27
3286	27
3287	28
3288	27
3289	25
3290	29
3291	19
3292	27
3293	28
3294	25
3295	24
3296	25
3297	21
3298	21
3299	28
3300	28
3301	23
3302	23
3303	21
3304	29
3305	16
3306	22
3307	26
3308	21
3309	22
3310	22
3311	25
3312	28
3313	30
3314	23
3315	30
3316	24
3317	22
3318	26
3319	18
3320	24
3321	26
3322	27
3323	27
3324	21
3325	22
3326	27
3327	24
3328	19
3329	22
3330	18
3331	22
3332	16
3333	21
3334	21
3335	19
3336	14
3337	26
3338	22
3339	26
3340	19
3341	26
3342	26
3343	24
3344	18
3345	20
3346	32
3347	27
3348	31
3349	27
3350	16
3351	29
3352	20
3353	18
3354	20
3355	26
3356	21
3357	22
3358	16
3359	22
3360	23
3361	29
3362	25
3363	22
3364	26
3365	20
3366	35
3367	23
3368	20
3369	18
3370	22
3371	28
3372	17
3373	23
3374	22
3375	17
3376	12
3377	20
3378	20
3379	18
3380	27
3381	24
3382	19
3383	20
3384	21
3385	24
3386	22
3387	22
3388	14
3389	23
3390	36
3391	21
3392	20
3393	14
3394	17
3395	21
3396	25
3397	18
3398	24
3399	22
3400	34
3401	19
3402	24
3403	22
3404	27
3405	23
3406	26
3407	21
3408	18
3409	24
3410	18
3411	23
3412	15
3413	24
3414	12
3415	11
3416	28
3417	22
3418	25
3419	17
3420	16
3421	21
3422	17
3423	22
3424	20
3425	15
3426	25
3427	19
3428	12
3429	24
3430	17
3431	16
3432	16
3433	18
3434	15
3435	16
3436	24
3437	30
3438	24
3439	19
3440	18
3441	23
3442	18
3443	20
3444	25
3445	24
3446	17
3447	19
3448	25
3449	19
3450	30
3451	11
3452	14
3453	26
3454	30
3455	16
